-0.26
-0.26
-0.26
-0.26
-0.26
-0.26
-0.26
-0.26
-0.26
-0.25
-0.24
-0.225
-0.21
-0.2
-0.2
-0.2
-0.18
-0.17
-0.155
-0.165
-0.17
-0.175
-0.17
-0.165
-0.16
-0.17
-0.175
-0.185
-0.175
-0.17
-0.165
-0.175
-0.2
-0.205
-0.21
-0.21
-0.21
-0.225
-0.24
-0.25
-0.245
-0.245
-0.25
-0.255
-0.27
-0.29
-0.305
-0.31
-0.305
-0.305
-0.31
-0.31
-0.31
-0.295
-0.3
-0.32
-0.325
-0.325
-0.32
-0.305
-0.29
-0.295
-0.29
-0.305
-0.295
-0.285
-0.295
-0.295
-0.3
-0.305
-0.285
-0.285
-0.28
-0.285
-0.29
-0.295
-0.295
-0.28
-0.275
-0.265
-0.255
-0.26
-0.245
-0.235
-0.235
-0.24
-0.24
-0.255
-0.25
-0.245
-0.245
-0.255
-0.26
-0.265
-0.26
-0.27
-0.275
-0.29
-0.3
-0.305
-0.31
-0.305
-0.29
-0.285
-0.3
-0.3
-0.295
-0.285
-0.285
-0.28
-0.29
-0.305
-0.3
-0.3
-0.305
-0.315
-0.335
-0.345
-0.34
-0.33
-0.325
-0.325
-0.33
-0.325
-0.315
-0.3
-0.305
-0.315
-0.335
-0.335
-0.325
-0.31
-0.305
-0.32
-0.33
-0.33
-0.31
-0.305
-0.31
-0.32
-0.335
-0.33
-0.315
-0.305
-0.265
-0.24
-0.21
-0.19
-0.17
-0.13
-0.08
0.005
0.1
0.185
0.305
0.43
0.58
0.705
0.765
0.835
0.89
0.87
0.75
0.575
0.375
0.15
-0.03
-0.13
-0.18
-0.22
-0.23
-0.235
-0.215
-0.215
-0.22
-0.235
-0.255
-0.265
-0.275
-0.275
-0.295
-0.3
-0.305
-0.31
-0.3
-0.315
-0.325
-0.345
-0.335
-0.34
-0.32
-0.295
-0.285
-0.295
-0.315
-0.32
-0.325
-0.325
-0.325
-0.335
-0.325
-0.335
-0.32
-0.32
-0.31
-0.31
-0.3
-0.28
-0.255
-0.235
-0.21
-0.205
-0.2
-0.205
-0.215
-0.195
-0.195
-0.205
-0.21
-0.215
-0.21
-0.195
-0.175
-0.165
-0.175
-0.165
-0.16
-0.16
-0.16
-0.165
-0.17
-0.185
-0.2
-0.19
-0.18
-0.175
-0.165
-0.175
-0.17
-0.165
-0.17
-0.175
-0.19
-0.195
-0.205
-0.195
-0.21
-0.205
-0.215
-0.225
-0.225
-0.22
-0.23
-0.25
-0.265
-0.29
-0.285
-0.275
-0.275
-0.3
-0.33
-0.335
-0.31
-0.28
-0.265
-0.255
-0.25
-0.255
-0.27
-0.26
-0.25
-0.24
-0.24
-0.24
-0.215
-0.215
-0.22
-0.235
-0.24
-0.26
-0.255
-0.255
-0.26
-0.255
-0.26
-0.265
-0.255
-0.255
-0.265
-0.27
-0.275
-0.28
-0.265
-0.27
-0.265
-0.275
-0.275
-0.29
-0.295
-0.3
-0.29
-0.295
-0.305
-0.315
-0.315
-0.31
-0.305
-0.305
-0.295
-0.32
-0.33
-0.33
-0.33
-0.335
-0.35
-0.34
-0.325
-0.305
-0.295
-0.3
-0.32
-0.35
-0.36
-0.345
-0.315
-0.29
-0.29
-0.295
-0.335
-0.335
-0.32
-0.295
-0.29
-0.285
-0.275
-0.28
-0.27
-0.265
-0.285
-0.285
-0.27
-0.275
-0.29
-0.3
-0.31
-0.315
-0.32
-0.305
-0.29
-0.28
-0.285
-0.29
-0.29
-0.29
-0.295
-0.305
-0.31
-0.29
-0.27
-0.255
-0.25
-0.28
-0.315
-0.35
-0.365
-0.36
-0.345
-0.335
-0.345
-0.325
-0.31
-0.295
-0.3
-0.285
-0.27
-0.265
-0.26
-0.29
-0.29
-0.285
-0.265
-0.265
-0.24
-0.23
-0.24
-0.27
-0.28
-0.285
-0.27
-0.245
-0.225
-0.215
-0.215
-0.235
-0.245
-0.255
-0.26
-0.275
-0.295
-0.3
-0.28
-0.265
-0.235
-0.21
-0.195
-0.18
-0.12
-0.04
0.1
0.235
0.35
0.475
0.62
0.735
0.85
0.945
0.98
0.89
0.72
0.5
0.27
0.045
-0.12
-0.245
-0.33
-0.35
-0.3
-0.235
-0.205
-0.195
-0.2
-0.195
-0.2
-0.21
-0.215
-0.23
-0.235
-0.23
-0.22
-0.225
-0.24
-0.25
-0.235
-0.24
-0.245
-0.245
-0.255
-0.255
-0.255
-0.25
-0.25
-0.25
-0.24
-0.24
-0.235
-0.22
-0.225
-0.23
-0.22
-0.205
-0.19
-0.18
-0.18
-0.185
-0.215
-0.21
-0.18
-0.165
-0.14
-0.125
-0.13
-0.12
-0.12
-0.11
-0.11
-0.105
-0.1
-0.095
-0.09
-0.085
-0.075
-0.085
-0.085
-0.09
-0.065
-0.05
-0.045
-0.055
-0.06
-0.06
-0.045
-0.045
-0.025
-0.025
-0.03
-0.025
-0.025
-0.01
-0.005
0
-0.01
-0.005
-0.005
-0.01
-0.015
-0.03
-0.05
-0.075
-0.06
-0.07
-0.07
-0.08
-0.09
-0.11
-0.09
-0.095
-0.095
-0.11
-0.14
-0.145
-0.16
-0.145
-0.155
-0.15
-0.16
-0.16
-0.16
-0.15
-0.14
-0.15
-0.155
-0.17
-0.15
-0.14
-0.125
-0.13
-0.14
-0.155
-0.14
-0.125
-0.13
-0.135
-0.145
-0.155
-0.145
-0.13
-0.125
-0.135
-0.135
-0.135
-0.125
-0.11
-0.11
-0.095
-0.115
-0.115
-0.11
-0.095
-0.105
-0.115
-0.13
-0.135
-0.125
-0.13
-0.125
-0.14
-0.15
-0.15
-0.145
-0.135
-0.135
-0.155
-0.16
-0.175
-0.155
-0.15
-0.155
-0.16
-0.175
-0.175
-0.16
-0.16
-0.16
-0.16
-0.16
-0.17
-0.155
-0.145
-0.155
-0.175
-0.17
-0.17
-0.155
-0.14
-0.145
-0.16
-0.18
-0.18
-0.175
-0.155
-0.155
-0.155
-0.155
-0.165
-0.16
-0.145
-0.145
-0.155
-0.15
-0.155
-0.14
-0.135
-0.135
-0.15
-0.16
-0.175
-0.165
-0.145
-0.14
-0.155
-0.175
-0.19
-0.175
-0.165
-0.16
-0.18
-0.195
-0.2
-0.185
-0.175
-0.18
-0.185
-0.19
-0.19
-0.18
-0.18
-0.17
-0.165
-0.18
-0.19
-0.17
-0.16
-0.165
-0.175
-0.175
-0.175
-0.17
-0.17
-0.17
-0.175
-0.18
-0.19
-0.17
-0.16
-0.155
-0.16
-0.17
-0.165
-0.15
-0.135
-0.145
-0.17
-0.185
-0.185
-0.165
-0.17
-0.16
-0.17
-0.18
-0.195
-0.18
-0.14
-0.125
-0.105
-0.095
-0.075
-0.035
0.025
0.115
0.22
0.325
0.44
0.585
0.71
0.82
0.915
1.005
1.055
1.04
0.935
0.76
0.555
0.33
0.135
0
-0.095
-0.155
-0.195
-0.19
-0.155
-0.115
-0.105
-0.105
-0.13
-0.145
-0.165
-0.165
-0.16
-0.16
-0.17
-0.19
-0.19
-0.18
-0.17
-0.175
-0.185
-0.18
-0.19
-0.185
-0.175
-0.175
-0.17
-0.175
-0.185
-0.18
-0.155
-0.15
-0.16
-0.165
-0.17
-0.16
-0.145
-0.155
-0.16
-0.17
-0.165
-0.16
-0.15
-0.145
-0.145
-0.15
-0.155
-0.145
-0.14
-0.135
-0.145
-0.145
-0.15
-0.135
-0.12
-0.125
-0.125
-0.135
-0.14
-0.125
-0.115
-0.13
-0.125
-0.135
-0.13
-0.125
-0.105
-0.1
-0.1
-0.09
-0.08
-0.055
-0.04
-0.03
-0.04
-0.045
-0.04
-0.025
-0.02
-0.01
-0.015
-0.025
-0.035
-0.025
-0.03
-0.04
-0.055
-0.075
-0.085
-0.085
-0.075
-0.09
-0.1
-0.13
-0.135
-0.14
-0.14
-0.145
-0.15
-0.165
-0.17
-0.165
-0.155
-0.17
-0.17
-0.175
-0.175
-0.17
-0.155
-0.16
-0.165
-0.175
-0.17
-0.16
-0.16
-0.17
-0.17
-0.19
-0.185
-0.19
-0.185
-0.19
-0.185
-0.195
-0.2
-0.195
-0.195
-0.185
-0.18
-0.18
-0.165
-0.17
-0.16
-0.165
-0.16
-0.16
-0.16
-0.15
-0.14
-0.145
-0.145
-0.16
-0.175
-0.165
-0.16
-0.165
-0.175
-0.17
-0.185
-0.175
-0.17
-0.175
-0.18
-0.195
-0.195
-0.185
-0.18
-0.165
-0.18
-0.19
-0.195
-0.195
-0.185
-0.18
-0.19
-0.195
-0.21
-0.195
-0.19
-0.19
-0.205
-0.19
-0.21
-0.19
-0.19
-0.195
-0.205
-0.205
-0.215
-0.21
-0.195
-0.195
-0.205
-0.205
-0.215
-0.22
-0.21
-0.22
-0.22
-0.23
-0.22
-0.2
-0.185
-0.165
-0.15
-0.14
-0.12
-0.1
-0.085
-0.06
0
0.075
0.165
0.27
0.365
0.475
0.6
0.69
0.77
0.85
0.91
0.91
0.835
0.725
0.59
0.43
0.25
0.1
0
-0.065
-0.105
-0.12
-0.115
-0.105
-0.11
-0.135
-0.155
-0.165
-0.17
-0.165
-0.18
-0.195
-0.2
-0.2
-0.2
-0.21
-0.215
-0.21
-0.215
-0.215
-0.21
-0.225
-0.225
-0.24
-0.24
-0.245
-0.24
-0.24
-0.25
-0.26
-0.26
-0.25
-0.255
-0.255
-0.265
-0.275
-0.29
-0.285
-0.285
-0.295
-0.31
-0.315
-0.3
-0.265
-0.25
-0.235
-0.235
-0.235
-0.225
-0.205
-0.18
-0.17
-0.17
-0.175
-0.18
-0.165
-0.145
-0.15
-0.145
-0.135
-0.14
-0.14
-0.135
-0.125
-0.125
-0.12
-0.115
-0.115
-0.105
-0.1
-0.105
-0.105
-0.11
-0.1
-0.095
-0.085
-0.1
-0.1
-0.105
-0.095
-0.09
-0.095
-0.105
-0.115
-0.125
-0.12
-0.12
-0.14
-0.15
-0.175
-0.185
-0.185
-0.19
-0.21
-0.22
-0.23
-0.23
-0.24
-0.255
-0.26
-0.285
-0.3
-0.29
-0.28
-0.28
-0.265
-0.285
-0.26
-0.225
-0.2
-0.18
-0.165
-0.16
-0.17
-0.16
-0.155
-0.155
-0.155
-0.16
-0.16
-0.15
-0.15
-0.155
-0.165
-0.175
-0.18
-0.16
-0.16
-0.15
-0.165
-0.165
-0.165
-0.17
-0.165
-0.17
-0.18
-0.18
-0.18
-0.17
-0.17
-0.185
-0.2
-0.22
-0.22
-0.22
-0.21
-0.215
-0.225
-0.24
-0.245
-0.235
-0.23
-0.245
-0.265
-0.28
-0.285
-0.285
-0.28
-0.295
-0.305
-0.305
-0.31
-0.295
-0.285
-0.275
-0.265
-0.265
-0.25
-0.225
-0.195
-0.19
-0.195
-0.2
-0.21
-0.21
-0.2
-0.2
-0.205
-0.215
-0.215
-0.195
-0.2
-0.18
-0.19
-0.19
-0.195
-0.195
-0.195
-0.205
-0.2
-0.21
-0.215
-0.21
-0.205
-0.205
-0.21
-0.225
-0.22
-0.215
-0.205
-0.215
-0.23
-0.23
-0.23
-0.23
-0.23
-0.235
-0.25
-0.265
-0.26
-0.255
-0.25
-0.255
-0.265
-0.275
-0.285
-0.275
-0.27
-0.26
-0.275
-0.28
-0.275
-0.265
-0.25
-0.24
-0.23
-0.22
-0.21
-0.19
-0.18
-0.175
-0.19
-0.18
-0.175
-0.175
-0.17
-0.175
-0.18
-0.185
-0.19
-0.18
-0.175
-0.175
-0.175
-0.2
-0.19
-0.175
-0.17
-0.175
-0.185
-0.18
-0.185
-0.165
-0.16
-0.17
-0.175
-0.18
-0.18
-0.155
-0.135
-0.125
-0.1
-0.095
-0.08
-0.035
0.035
0.135
0.24
0.34
0.465
0.61
0.735
0.845
0.94
1.01
1.025
0.94
0.775
0.55
0.31
0.1
-0.04
-0.135
-0.21
-0.28
-0.315
-0.305
-0.27
-0.235
-0.23
-0.23
-0.235
-0.245
-0.245
-0.245
-0.24
-0.25
-0.25
-0.25
-0.245
-0.235
-0.225
-0.22
-0.23
-0.24
-0.25
-0.245
-0.235
-0.235
-0.25
-0.25
-0.25
-0.235
-0.24
-0.235
-0.23
-0.245
-0.25
-0.235
-0.235
-0.235
-0.23
-0.235
-0.235
-0.22
-0.215
-0.215
-0.225
-0.23
-0.225
-0.215
-0.21
-0.205
-0.21
-0.215
-0.21
-0.195
-0.175
-0.17
-0.175
-0.17
-0.185
-0.155
-0.155
-0.155
-0.155
-0.15
-0.14
-0.135
-0.135
-0.13
-0.14
-0.135
-0.135
-0.13
-0.13
-0.13
-0.135
-0.13
-0.115
-0.09
-0.07
-0.065
-0.065
-0.08
-0.085
-0.065
-0.065
-0.065
-0.08
-0.08
-0.08
-0.085
-0.075
-0.085
-0.105
-0.12
-0.13
-0.12
-0.125
-0.135
-0.14
-0.155
-0.165
-0.17
-0.17
-0.165
-0.175
-0.19
-0.205
-0.205
-0.19
-0.205
-0.205
-0.21
-0.21
-0.195
-0.195
-0.195
-0.2
-0.22
-0.235
-0.215
-0.19
-0.18
-0.18
-0.195
-0.2
-0.19
-0.17
-0.16
-0.165
-0.18
-0.175
-0.16
-0.16
-0.165
-0.175
-0.195
-0.2
-0.2
-0.195
-0.2
-0.205
-0.225
-0.23
-0.22
-0.19
-0.18
-0.185
-0.19
-0.2
-0.19
-0.18
-0.18
-0.185
-0.205
-0.21
-0.205
-0.21
-0.215
-0.22
-0.24
-0.245
-0.24
-0.22
-0.22
-0.215
-0.225
-0.23
-0.225
-0.225
-0.22
-0.225
-0.24
-0.245
-0.225
-0.22
-0.215
-0.21
-0.215
-0.235
-0.215
-0.215
-0.21
-0.215
-0.215
-0.22
-0.215
-0.205
-0.19
-0.195
-0.19
-0.205
-0.185
-0.18
-0.185
-0.19
-0.195
-0.205
-0.215
-0.205
-0.21
-0.21
-0.225
-0.215
-0.205
-0.205
-0.205
-0.22
-0.24
-0.24
-0.215
-0.2
-0.18
-0.15
-0.13
-0.08
-0.005
0.115
0.23
0.315
0.405
0.515
0.65
0.74
0.81
0.89
0.925
0.885
0.765
0.64
0.46
0.255
0.085
-0.025
-0.085
-0.135
-0.155
-0.145
-0.14
-0.13
-0.12
-0.13
-0.155
-0.17
-0.185
-0.2
-0.215
-0.2
-0.205
-0.205
-0.22
-0.225
-0.225
-0.205
-0.215
-0.215
-0.225
-0.225
-0.225
-0.215
-0.215
-0.225
-0.235
-0.25
-0.24
-0.235
-0.23
-0.235
-0.235
-0.25
-0.25
-0.255
-0.25
-0.255
-0.265
-0.27
-0.265
-0.245
-0.245
-0.24
-0.24
-0.24
-0.235
-0.225
-0.21
-0.22
-0.225
-0.22
-0.2
-0.185
-0.165
-0.165
-0.17
-0.15
-0.145
-0.135
-0.135
-0.125
-0.135
-0.135
-0.14
-0.125
-0.12
-0.13
-0.14
-0.15
-0.14
-0.115
-0.105
-0.115
-0.115
-0.125
-0.115
-0.11
-0.125
-0.14
-0.15
-0.155
-0.16
-0.17
-0.17
-0.185
-0.2
-0.22
-0.225
-0.225
-0.235
-0.24
-0.255
-0.265
-0.275
-0.27
-0.27
-0.275
-0.285
-0.29
-0.29
-0.28
-0.295
-0.295
-0.305
-0.305
-0.31
-0.29
-0.275
-0.26
-0.265
-0.25
-0.225
-0.215
-0.2
-0.19
-0.2
-0.19
-0.17
-0.155
-0.15
-0.155
-0.17
-0.165
-0.155
-0.15
-0.155
-0.16
-0.175
-0.17
-0.165
-0.17
-0.175
-0.165
-0.165
-0.18
-0.185
-0.17
-0.185
-0.19
-0.2
-0.205
-0.205
-0.215
-0.21
-0.215
-0.22
-0.23
-0.225
-0.22
-0.22
-0.225
-0.235
-0.25
-0.245
-0.24
-0.25
-0.26
-0.275
-0.29
-0.29
-0.285
-0.29
-0.3
-0.305
-0.315
-0.31
-0.31
-0.3
-0.32
-0.315
-0.32
-0.31
-0.285
-0.255
-0.21
-0.175
-0.135
-0.075
0.01
0.09
0.16
0.23
0.315
0.42
0.525
0.6
0.66
0.715
0.725
0.7
0.62
0.5
0.325
0.135
-0.02
-0.095
-0.135
-0.175
-0.21
-0.22
-0.215
-0.205
-0.215
-0.225
-0.25
-0.265
-0.275
-0.275
-0.28
-0.27
-0.285
-0.295
-0.3
-0.3
-0.295
-0.3
-0.32
-0.32
-0.315
-0.3
-0.3
-0.31
-0.31
-0.33
-0.32
-0.315
-0.315
-0.315
-0.32
-0.325
-0.315
-0.32
-0.3
-0.29
-0.3
-0.31
-0.315
-0.3
-0.29
-0.3
-0.295
-0.29
-0.28
-0.255
-0.23
-0.225
-0.235
-0.245
-0.235
-0.22
-0.215
-0.215
-0.225
-0.225
-0.21
-0.2
-0.195
-0.19
-0.195
-0.19
-0.195
-0.19
-0.17
-0.175
-0.165
-0.16
-0.15
-0.13
-0.13
-0.135
-0.13
-0.135
-0.14
-0.125
-0.115
-0.12
-0.135
-0.15
-0.16
-0.16
-0.165
-0.175
-0.2
-0.21
-0.225
-0.215
-0.21
-0.215
-0.245
-0.26
-0.26
-0.275
-0.265
-0.275
-0.285
-0.295
-0.3
-0.295
-0.285
-0.29
-0.29
-0.295
-0.285
-0.28
-0.26
-0.27
-0.27
-0.285
-0.285
-0.275
-0.27
-0.275
-0.285
-0.3
-0.3
-0.29
-0.275
-0.285
-0.29
-0.295
-0.285
-0.27
-0.265
-0.275
-0.275
-0.28
-0.275
-0.275
-0.26
-0.26
-0.275
-0.29
-0.275
-0.26
-0.255
-0.255
-0.265
-0.27
-0.26
-0.27
-0.265
-0.26
-0.28
-0.295
-0.275
-0.265
-0.255
-0.26
-0.28
-0.3
-0.295
-0.29
-0.28
-0.29
-0.295
-0.305
-0.295
-0.295
-0.275
-0.285
-0.29
-0.295
-0.295
-0.28
-0.28
-0.28
-0.28
-0.28
-0.285
-0.265
-0.255
-0.265
-0.275
-0.29
-0.305
-0.285
-0.28
-0.28
-0.285
-0.29
-0.305
-0.29
-0.275
-0.275
-0.28
-0.285
-0.29
-0.29
-0.27
-0.28
-0.275
-0.285
-0.29
-0.275
-0.265
-0.275
-0.265
-0.27
-0.27
-0.265
-0.26
-0.27
-0.27
-0.285
-0.295
-0.29
-0.29
-0.29
-0.3
-0.305
-0.31
-0.31
-0.31
-0.31
-0.305
-0.315
-0.315
-0.315
-0.31
-0.31
-0.32
-0.32
-0.325
-0.32
-0.315
-0.325
-0.32
-0.335
-0.32
-0.3
-0.29
-0.28
-0.255
-0.27
-0.265
-0.265
-0.255
-0.27
-0.27
-0.285
-0.28
-0.275
-0.27
-0.28
-0.285
-0.29
-0.3
-0.3
-0.3
-0.295
-0.295
-0.3
-0.315
-0.305
-0.3
-0.285
-0.29
-0.295
-0.31
-0.3
-0.29
-0.29
-0.295
-0.3
-0.3
-0.3
-0.3
-0.31
-0.305
-0.315
-0.315
-0.315
-0.31
-0.3
-0.305
-0.31
-0.31
-0.295
-0.295
-0.295
-0.295
-0.3
-0.29
-0.285
-0.27
-0.275
-0.27
-0.28
-0.275
-0.27
-0.275
-0.285
-0.275
-0.275
-0.27
-0.27
-0.265
-0.27
-0.265
-0.26
-0.255
-0.23
-0.22
-0.225
-0.24
-0.245
-0.24
-0.245
-0.235
-0.23
-0.225
-0.22
-0.225
-0.205
-0.2
-0.2
-0.19
-0.18
-0.14
-0.125
-0.11
-0.08
-0.045
0.03
0.125
0.245
0.35
0.465
0.565
0.66
0.74
0.82
0.885
0.875
0.75
0.58
0.37
0.165
-0.005
-0.125
-0.205
-0.27
-0.29
-0.285
-0.245
-0.22
-0.22
-0.23
-0.245
-0.245
-0.26
-0.26
-0.29
-0.285
-0.305
-0.3
-0.3
-0.315
-0.335
-0.335
-0.35
-0.36
-0.355
-0.37
-0.37
-0.36
-0.335
-0.3
-0.285
-0.28
-0.275
-0.285
-0.295
-0.29
-0.285
-0.275
-0.285
-0.285
-0.28
-0.285
-0.275
-0.28
-0.27
-0.265
-0.255
-0.25
-0.24
-0.235
-0.245
-0.25
-0.245
-0.23
-0.205
-0.205
-0.2
-0.21
-0.205
-0.205
-0.2
-0.205
-0.21
-0.205
-0.215
-0.205
-0.18
-0.175
-0.18
-0.18
-0.175
-0.17
-0.165
-0.175
-0.18
-0.19
-0.18
-0.16
-0.155
-0.155
-0.15
-0.15
-0.14
-0.135
-0.13
-0.125
-0.14
-0.15
-0.155
-0.15
-0.155
-0.155
-0.165
-0.17
-0.165
-0.14
-0.14
-0.14
-0.15
-0.17
-0.16
-0.175
-0.17
-0.175
-0.19
-0.205
-0.22
-0.21
-0.2
-0.2
-0.21
-0.215
-0.22
-0.21
-0.205
-0.2
-0.215
-0.21
-0.21
-0.2
-0.2
-0.205
-0.215
-0.22
-0.225
-0.225
-0.215
-0.225
-0.23
-0.245
-0.235
-0.225
-0.225
-0.23
-0.23
-0.23
-0.22
-0.215
-0.205
-0.21
-0.22
-0.23
-0.245
-0.235
-0.24
-0.255
-0.265
-0.28
-0.285
-0.28
-0.275
-0.28
-0.275
-0.275
-0.265
-0.255
-0.25
-0.255
-0.26
-0.265
-0.26
-0.245
-0.25
-0.24
-0.245
-0.255
-0.265
-0.24
-0.24
-0.24
-0.235
-0.24
-0.24
-0.245
-0.24
-0.245
-0.255
-0.26
-0.26
-0.255
-0.245
-0.245
-0.24
-0.255
-0.265
-0.26
-0.265
-0.255
-0.26
-0.26
-0.27
-0.26
-0.26
-0.265
-0.275
-0.295
-0.3
-0.295
-0.285
-0.29
-0.295
-0.325
-0.33
-0.325
-0.32
-0.32
-0.31
-0.33
-0.335
-0.305
-0.285
-0.27
-0.275
-0.29
-0.285
-0.275
-0.265
-0.26
-0.265
-0.275
-0.27
-0.26
-0.25
-0.245
-0.245
-0.255
-0.24
-0.235
-0.23
-0.235
-0.24
-0.245
-0.245
-0.235
-0.225
-0.235
-0.24
-0.245
-0.25
-0.235
-0.225
-0.23
-0.235
-0.235
-0.235
-0.24
-0.24
-0.235
-0.23
-0.235
-0.22
-0.215
-0.19
-0.165
-0.15
-0.13
-0.085
0.02
0.145
0.255
0.365
0.475
0.595
0.705
0.81
0.865
0.86
0.755
0.575
0.36
0.155
-0.025
-0.165
-0.27
-0.31
-0.3
-0.26
-0.205
-0.19
-0.195
-0.215
-0.22
-0.215
-0.225
-0.235
-0.245
-0.255
-0.24
-0.23
-0.24
-0.255
-0.26
-0.275
-0.265
-0.255
-0.25
-0.265
-0.275
-0.28
-0.27
-0.265
-0.275
-0.285
-0.3
-0.295
-0.28
-0.275
-0.275
-0.275
-0.29
-0.28
-0.275
-0.265
-0.27
-0.275
-0.285
-0.28
-0.27
-0.26
-0.26
-0.26
-0.27
-0.265
-0.25
-0.235
-0.24
-0.235
-0.24
-0.22
-0.21
-0.195
-0.19
-0.185
-0.185
-0.175
-0.165
-0.145
-0.15
-0.145
-0.15
-0.14
-0.13
-0.135
-0.13
-0.135
-0.14
-0.13
-0.12
-0.11
-0.12
-0.13
-0.135
-0.14
-0.14
-0.13
-0.14
-0.155
-0.165
-0.175
-0.18
-0.18
-0.19
-0.2
-0.215
-0.225
-0.225
-0.225
-0.23
-0.245
-0.26
-0.26
-0.25
-0.25
-0.265
-0.275
-0.285
-0.28
-0.265
-0.27
-0.27
-0.29
-0.295
-0.3
-0.295
-0.3
-0.295
-0.305
-0.3
-0.3
-0.295
-0.275
-0.28
-0.28
-0.28
-0.28
-0.275
-0.265
-0.275
-0.27
-0.285
-0.285
-0.28
-0.27
-0.26
-0.255
-0.25
-0.25
-0.235
-0.235
-0.24
-0.24
-0.26
-0.26
-0.24
-0.245
-0.245
-0.255
-0.255
-0.265
-0.255
-0.25
-0.255
-0.25
-0.26
-0.26
-0.265
-0.26
-0.265
-0.275
-0.28
-0.28
-0.27
-0.265
-0.27
-0.28
-0.28
-0.285
-0.28
-0.275
-0.28
-0.285
-0.305
-0.31
-0.3
-0.29
-0.29
-0.29
-0.29
-0.31
-0.29
-0.29
-0.295
-0.305
-0.31
-0.305
-0.31
-0.3
-0.305
-0.31
-0.32
-0.33
-0.32
-0.31
-0.305
-0.32
-0.34
-0.35
-0.34
-0.325
-0.335
-0.325
-0.315
-0.295
-0.25
-0.225
-0.22
-0.225
-0.24
-0.24
-0.235
-0.22
-0.23
-0.23
-0.24
-0.24
-0.23
-0.225
-0.22
-0.245
-0.24
-0.255
-0.245
-0.235
-0.245
-0.255
-0.255
-0.265
-0.255
-0.26
-0.265
-0.275
-0.28
-0.27
-0.27
-0.255
-0.25
-0.24
-0.245
-0.235
-0.24
-0.215
-0.19
-0.155
-0.145
-0.11
-0.045
0.06
0.165
0.26
0.35
0.47
0.59
0.67
0.725
0.755
0.75
0.68
0.56
0.425
0.235
0.04
-0.095
-0.15
-0.165
-0.17
-0.17
-0.18
-0.175
-0.195
-0.2
-0.205
-0.23
-0.25
-0.27
-0.27
-0.265
-0.265
-0.285
-0.3
-0.305
-0.305
-0.295
-0.28
-0.29
-0.29
-0.295
-0.295
-0.295
-0.285
-0.275
-0.27
-0.285
-0.29
-0.285
-0.275
-0.285
-0.28
-0.28
-0.28
-0.275
-0.27
-0.275
-0.285
-0.295
-0.29
-0.28
-0.275
-0.275
-0.28
-0.285
-0.28
-0.275
-0.265
-0.255
-0.265
-0.255
-0.235
-0.21
-0.195
-0.19
-0.18
-0.185
-0.185
-0.165
-0.155
-0.16
-0.17
-0.175
-0.165
-0.155
-0.145
-0.145
-0.14
-0.14
-0.14
-0.135
-0.125
-0.13
-0.14
-0.165
-0.175
-0.175
-0.18
-0.2
-0.215
-0.23
-0.24
-0.235
-0.235
-0.25
-0.27
-0.27
-0.265
-0.27
-0.275
-0.29
-0.295
-0.29
-0.295
-0.285
-0.275
-0.285
-0.285
-0.295
-0.29
-0.28
-0.28
-0.285
-0.29
-0.29
-0.295
-0.295
-0.29
-0.285
-0.275
-0.275
-0.26
-0.25
-0.235
-0.235
-0.24
-0.24
-0.255
-0.245
-0.245
-0.25
-0.25
-0.245
-0.245
-0.24
-0.235
-0.25
-0.245
-0.255
-0.255
-0.255
-0.25
-0.26
-0.265
-0.27
-0.27
-0.27
-0.27
-0.27
-0.27
-0.27
-0.29
-0.29
-0.27
-0.27
-0.29
-0.285
-0.285
-0.285
-0.28
-0.285
-0.285
-0.295
-0.29
-0.29
-0.285
-0.295
-0.295
-0.305
-0.3
-0.305
-0.295
-0.295
-0.3
-0.315
-0.315
-0.32
-0.31
-0.3
-0.31
-0.305
-0.29
-0.275
-0.265
-0.27
-0.275
-0.28
-0.285
-0.28
-0.275
-0.285
-0.285
-0.29
-0.29
-0.29
-0.28
-0.28
-0.29
-0.305
-0.31
-0.295
-0.28
-0.285
-0.295
-0.3
-0.3
-0.305
-0.29
-0.295
-0.27
-0.265
-0.235
-0.2
-0.18
-0.165
-0.135
-0.07
0.02
0.13
0.235
0.35
0.485
0.585
0.68
0.76
0.815
0.76
0.605
0.4
0.16
-0.04
-0.165
-0.235
-0.285
-0.295
-0.285
-0.25
-0.235
-0.24
-0.265
-0.295
-0.3
-0.295
-0.27
-0.265
-0.265
-0.275
-0.28
-0.27
-0.27
-0.275
-0.28
-0.3
-0.3
-0.31
-0.3
-0.31
-0.32
-0.34
-0.34
-0.325
-0.315
-0.32
-0.32
-0.315
-0.31
-0.295
-0.285
-0.29
-0.295
-0.3
-0.295
-0.29
-0.28
-0.29
-0.29
-0.3
-0.28
-0.275
-0.265
-0.265
-0.265
-0.265
-0.26
-0.25
-0.24
-0.255
-0.255
-0.245
-0.24
-0.23
-0.22
-0.215
-0.215
-0.205
-0.2
-0.195
-0.18
-0.165
-0.15
-0.145
-0.13
-0.11
-0.105
-0.1
-0.11
-0.125
-0.14
-0.125
-0.13
-0.13
-0.145
-0.16
-0.175
-0.175
-0.17
-0.19
-0.22
-0.24
-0.245
-0.245
-0.25
-0.255
-0.27
-0.295
-0.295
-0.285
-0.27
-0.275
-0.28
-0.29
-0.3
-0.28
-0.28
-0.28
-0.29
-0.305
-0.305
-0.3
-0.29
-0.295
-0.3
-0.305
-0.31
-0.31
-0.3
-0.305
-0.31
-0.33
-0.335
-0.325
-0.315
-0.315
-0.31
-0.315
-0.315
-0.32
-0.31
-0.32
-0.33
-0.345
-0.345
-0.345
-0.315
-0.315
-0.305
-0.3
-0.285
-0.26
-0.245
-0.25
-0.255
-0.27
-0.27
-0.27
-0.265
-0.27
-0.28
-0.275
-0.27
-0.26
-0.255
-0.265
-0.27
-0.285
-0.285
-0.27
-0.255
-0.255
-0.27
-0.275
-0.275
-0.265
-0.255
-0.26
-0.265
-0.275
-0.275
-0.28
-0.265
-0.27
-0.27
-0.29
-0.29
-0.285
-0.28
-0.285
-0.3
-0.305
-0.315
-0.305
-0.29
-0.29
-0.305
-0.315
-0.305
-0.285
-0.275
-0.28
-0.3
-0.31
-0.305
-0.3
-0.285
-0.295
-0.3
-0.305
-0.31
-0.31
-0.29
-0.28
-0.295
-0.285
-0.275
-0.255
-0.225
-0.23
-0.235
-0.245
-0.245
-0.24
-0.22
-0.22
-0.215
-0.215
-0.205
-0.17
-0.135
-0.105
-0.065
0.03
0.13
0.255
0.385
0.52
0.64
0.74
0.825
0.915
0.99
0.965
0.85
0.655
0.425
0.19
-0.005
-0.145
-0.235
-0.305
-0.335
-0.325
-0.28
-0.26
-0.245
-0.25
-0.265
-0.26
-0.25
-0.265
-0.275
-0.285
-0.305
-0.295
-0.295
-0.31
-0.305
-0.31
-0.325
-0.325
-0.315
-0.32
-0.32
-0.32
-0.32
-0.32
-0.31
-0.315
-0.31
-0.3
-0.305
-0.29
-0.265
-0.28
-0.285
-0.295
-0.295
-0.275
-0.27
-0.27
-0.265
-0.27
-0.265
-0.26
-0.26
-0.255
-0.265
-0.26
-0.255
-0.25
-0.255
-0.235
-0.24
-0.245
-0.24
-0.235
-0.215
-0.215
-0.215
-0.22
-0.21
-0.195
-0.175
-0.175
-0.175
-0.175
-0.18
-0.165
-0.155
-0.155
-0.15
-0.155
-0.155
-0.155
-0.15
-0.145
-0.145
-0.155
-0.155
-0.155
-0.155
-0.16
-0.17
-0.185
-0.195
-0.2
-0.215
-0.225
-0.23
-0.255
-0.265
-0.27
-0.26
-0.27
-0.275
-0.275
-0.275
-0.255
-0.245
-0.245
-0.245
-0.255
-0.24
-0.235
-0.225
-0.23
-0.245
-0.255
-0.25
-0.25
-0.245
-0.25
-0.25
-0.255
-0.255
-0.255
-0.24
-0.225
-0.235
-0.24
-0.235
-0.22
-0.22
-0.23
-0.24
-0.25
-0.24
-0.23
-0.225
-0.225
-0.24
-0.245
-0.255
-0.24
-0.245
-0.24
-0.25
-0.255
-0.255
-0.24
-0.23
-0.235
-0.245
-0.26
-0.26
-0.25
-0.245
-0.25
-0.265
-0.27
-0.275
-0.275
-0.29
-0.275
-0.3
-0.32
-0.325
-0.32
-0.305
-0.315
-0.335
-0.345
-0.345
-0.32
-0.29
-0.285
-0.285
-0.275
-0.27
-0.25
-0.24
-0.21
-0.2
-0.205
-0.2
-0.19
-0.18
-0.195
-0.21
-0.21
-0.22
-0.22
-0.2
-0.205
-0.23
-0.25
-0.25
-0.24
-0.235
-0.235
-0.245
-0.27
-0.275
-0.27
-0.265
-0.26
-0.27
-0.275
-0.275
-0.265
-0.245
-0.255
-0.265
-0.28
-0.275
-0.27
-0.26
-0.26
-0.265
-0.285
-0.285
-0.275
-0.26
-0.26
-0.265
-0.27
-0.26
-0.23
-0.195
-0.175
-0.155
-0.12
-0.04
0.065
0.16
0.255
0.345
0.45
0.545
0.61
0.675
0.73
0.745
0.68
0.585
0.46
0.32
0.155
0.015
-0.055
-0.105
-0.135
-0.13
-0.135
-0.14
-0.155
-0.175
-0.185
-0.185
-0.2
-0.215
-0.235
-0.245
-0.245
-0.24
-0.25
-0.25
-0.28
-0.285
-0.275
-0.275
-0.275
-0.275
-0.285
-0.29
-0.28
-0.275
-0.285
-0.285
-0.295
-0.29
-0.28
-0.285
-0.29
-0.295
-0.295
-0.31
-0.3
-0.28
-0.285
-0.285
-0.29
-0.29
-0.29
-0.275
-0.285
-0.265
-0.275
-0.27
-0.255
-0.24
-0.245
-0.23
-0.235
-0.235
-0.215
-0.205
-0.205
-0.22
-0.245
-0.23
-0.21
-0.205
-0.205
-0.215
-0.21
-0.195
-0.18
-0.165
-0.155
-0.155
-0.14
-0.125
-0.105
-0.105
-0.1
-0.115
-0.135
-0.125
-0.11
-0.1
-0.11
-0.115
-0.125
-0.13
-0.125
-0.115
-0.13
-0.145
-0.16
-0.165
-0.17
-0.165
-0.17
-0.195
-0.215
-0.215
-0.215
-0.22
-0.215
-0.23
-0.24
-0.255
-0.245
-0.245
-0.24
-0.25
-0.265
-0.26
-0.235
-0.225
-0.225
-0.235
-0.26
-0.265
-0.25
-0.24
-0.26
-0.26
-0.27
-0.27
-0.265
-0.25
-0.25
-0.255
-0.27
-0.285
-0.275
-0.265
-0.28
-0.28
-0.285
-0.285
-0.28
-0.27
-0.27
-0.26
-0.255
-0.25
-0.235
-0.22
-0.215
-0.225
-0.24
-0.235
-0.23
-0.22
-0.22
-0.225
-0.24
-0.235
-0.235
-0.22
-0.235
-0.245
-0.245
-0.255
-0.245
-0.23
-0.245
-0.245
-0.255
-0.24
-0.235
-0.23
-0.235
-0.25
-0.255
-0.255
-0.25
-0.245
-0.24
-0.26
-0.265
-0.28
-0.27
-0.27
-0.275
-0.28
-0.28
-0.28
-0.28
-0.27
-0.28
-0.285
-0.29
-0.285
-0.285
-0.28
-0.28
-0.285
-0.295
-0.295
-0.28
-0.27
-0.27
-0.28
-0.285
-0.27
-0.27
-0.26
-0.265
-0.265
-0.265
-0.27
-0.265
-0.255
-0.255
-0.265
-0.275
-0.265
-0.27
-0.26
-0.26
-0.27
-0.275
-0.265
-0.25
-0.225
-0.235
-0.245
-0.27
-0.26
-0.26
-0.245
-0.25
-0.255
-0.28
-0.275
-0.275
-0.265
-0.28
-0.285
-0.29
-0.285
-0.275
-0.27
-0.265
-0.29
-0.295
-0.3
-0.29
-0.27
-0.275
-0.29
-0.295
-0.29
-0.27
-0.255
-0.25
-0.23
-0.22
-0.2
-0.16
-0.13
-0.06
0.025
0.105
0.195
0.295
0.42
0.55
0.635
0.675
0.745
0.795
0.785
0.695
0.56
0.39
0.19
0.04
-0.055
-0.1
-0.135
-0.18
-0.195
-0.185
-0.165
-0.165
-0.185
-0.21
-0.22
-0.22
-0.225
-0.235
-0.235
-0.255
-0.265
-0.26
-0.26
-0.26
-0.27
-0.29
-0.285
-0.285
-0.28
-0.295
-0.295
-0.315
-0.31
-0.305
-0.3
-0.295
-0.305
-0.315
-0.31
-0.31
-0.3
-0.3
-0.29
-0.31
-0.31
-0.3
-0.29
-0.28
-0.285
-0.295
-0.275
-0.265
-0.25
-0.245
-0.25
-0.245
-0.245
-0.24
-0.225
-0.215
-0.2
-0.2
-0.17
-0.17
-0.16
-0.16
-0.155
-0.16
-0.15
-0.14
-0.135
-0.13
-0.145
-0.14
-0.135
-0.125
-0.12
-0.125
-0.13
-0.14
-0.12
-0.12
-0.115
-0.11
-0.125
-0.13
-0.125
-0.12
-0.115
-0.11
-0.13
-0.15
-0.145
-0.145
-0.14
-0.15
-0.165
-0.19
-0.195
-0.2
-0.195
-0.2
-0.215
-0.22
-0.225
-0.215
-0.22
-0.22
-0.225
-0.23
-0.235
-0.23
-0.225
-0.22
-0.23
-0.245
-0.24
-0.23
-0.225
-0.225
-0.24
-0.25
-0.25
-0.25
-0.245
-0.245
-0.26
-0.27
-0.26
-0.255
-0.245
-0.25
-0.255
-0.27
-0.26
-0.25
-0.245
-0.245
-0.255
-0.265
-0.255
-0.26
-0.25
-0.26
-0.25
-0.265
-0.26
-0.265
-0.26
-0.26
-0.265
-0.285
-0.275
-0.265
-0.26
-0.255
-0.255
-0.255
-0.255
-0.235
-0.22
-0.225
-0.23
-0.245
-0.23
-0.225
-0.22
-0.22
-0.23
-0.245
-0.24
-0.23
-0.23
-0.23
-0.23
-0.245
-0.245
-0.24
-0.235
-0.235
-0.245
-0.26
-0.275
-0.27
-0.25
-0.25
-0.26
-0.27
-0.275
-0.265
-0.265
-0.26
-0.28
-0.3
-0.29
-0.27
-0.26
-0.265
-0.28
-0.3
-0.285
-0.285
-0.265
-0.27
-0.27
-0.28
-0.28
-0.28
-0.275
-0.275
-0.28
-0.295
-0.29
-0.275
-0.26
-0.265
-0.265
-0.265
-0.26
-0.25
-0.24
-0.25
-0.255
-0.255
-0.25
-0.24
-0.235
-0.23
-0.235
-0.245
-0.245
-0.24
-0.235
-0.245
-0.255
-0.27
-0.27
-0.275
-0.265
-0.27
-0.285
-0.29
-0.28
-0.27
-0.265
-0.27
-0.27
-0.275
-0.265
-0.24
-0.24
-0.255
-0.26
-0.27
-0.265
-0.255
-0.255
-0.255
-0.265
-0.275
-0.28
-0.28
-0.275
-0.275
-0.28
-0.295
-0.295
-0.285
-0.28
-0.28
-0.285
-0.3
-0.285
-0.28
-0.26
-0.26
-0.265
-0.28
-0.26
-0.25
-0.24
-0.245
-0.24
-0.26
-0.255
-0.245
-0.235
-0.24
-0.245
-0.24
-0.235
-0.225
-0.23
-0.235
-0.255
-0.255
-0.245
-0.23
-0.225
-0.235
-0.235
-0.26
-0.245
-0.235
-0.22
-0.225
-0.23
-0.24
-0.245
-0.225
-0.19
-0.175
-0.14
-0.14
-0.11
-0.065
0.025
0.135
0.235
0.325
0.445
0.58
0.685
0.78
0.855
0.925
0.925
0.845
0.69
0.47
0.245
0.04
-0.105
-0.2
-0.245
-0.295
-0.315
-0.29
-0.255
-0.23
-0.235
-0.23
-0.255
-0.275
-0.27
-0.27
-0.28
-0.28
-0.27
-0.28
-0.28
-0.265
-0.25
-0.25
-0.245
-0.26
-0.255
-0.245
-0.24
-0.24
-0.245
-0.26
-0.255
-0.25
-0.24
-0.25
-0.26
-0.265
-0.26
-0.26
-0.245
-0.25
-0.255
-0.27
-0.265
-0.255
-0.25
-0.24
-0.255
-0.265
-0.255
-0.25
-0.245
-0.255
-0.245
-0.25
-0.25
-0.24
-0.225
-0.215
-0.22
-0.225
-0.205
-0.195
-0.18
-0.185
-0.19
-0.19
-0.185
-0.175
-0.16
-0.165
-0.17
-0.17
-0.155
-0.15
-0.14
-0.145
-0.15
-0.15
-0.145
-0.13
-0.125
-0.125
-0.13
-0.145
-0.15
-0.125
-0.105
-0.1
-0.105
-0.12
-0.11
-0.11
-0.11
-0.125
-0.14
-0.165
-0.175
-0.18
-0.17
-0.19
-0.2
-0.22
-0.22
-0.21
-0.21
-0.23
-0.235
-0.245
-0.245
-0.24
-0.25
-0.255
-0.265
-0.28
-0.27
-0.265
-0.26
-0.245
-0.265
-0.26
-0.255
-0.25
-0.25
-0.25
-0.255
-0.27
-0.28
-0.265
-0.255
-0.27
-0.265
-0.285
-0.27
-0.265
-0.255
-0.265
-0.26
-0.285
-0.285
-0.285
-0.275
-0.275
-0.275
-0.3
-0.275
-0.255
-0.235
-0.235
-0.23
-0.235
-0.22
-0.215
-0.21
-0.205
-0.22
-0.22
-0.21
-0.205
-0.2
-0.205
-0.215
-0.23
-0.22
-0.21
-0.21
-0.23
-0.235
-0.25
-0.235
-0.235
-0.225
-0.23
-0.245
-0.255
-0.25
-0.255
-0.25
-0.23
-0.23
-0.235
-0.225
-0.22
-0.215
-0.23
-0.245
-0.255
-0.25
-0.255
-0.25
-0.255
-0.275
-0.285
-0.28
-0.275
-0.275
-0.285
-0.3
-0.31
-0.31
-0.305
-0.305
-0.31
-0.33
-0.33
-0.325
-0.315
-0.29
-0.265
-0.26
-0.265
-0.255
-0.255
-0.24
-0.24
-0.245
-0.275
-0.255
-0.245
-0.245
-0.25
-0.26
-0.275
-0.275
-0.26
-0.26
-0.255
-0.275
-0.295
-0.285
-0.28
-0.275
-0.285
-0.29
-0.295
-0.28
-0.28
-0.255
-0.26
-0.26
-0.275
-0.28
-0.27
-0.265
-0.28
-0.285
-0.29
-0.285
-0.275
-0.27
-0.265
-0.28
-0.29
-0.285
-0.275
-0.27
-0.275
-0.28
-0.29
-0.285
-0.28
-0.28
-0.285
-0.29
-0.285
-0.285
-0.28
-0.27
-0.275
-0.285
-0.285
-0.28
-0.28
-0.27
-0.27
-0.285
-0.275
-0.27
-0.26
-0.25
-0.26
-0.265
-0.275
-0.275
-0.25
-0.255
-0.26
-0.265
-0.255
-0.24
-0.21
-0.185
-0.155
-0.14
-0.125
-0.075
0.01
0.115
0.21
0.28
0.375
0.485
0.6
0.69
0.76
0.81
0.83
0.765
0.61
0.43
0.195
0
-0.125
-0.175
-0.225
-0.22
-0.215
-0.205
-0.225
-0.215
-0.225
-0.23
-0.24
-0.25
-0.26
-0.26
-0.26
-0.25
-0.26
-0.255
-0.26
-0.25
-0.26
-0.255
-0.255
-0.26
-0.285
-0.275
-0.28
-0.27
-0.27
-0.27
-0.28
-0.275
-0.275
-0.26
-0.265
-0.275
-0.285
-0.285
-0.285
-0.275
-0.28
-0.275
-0.285
-0.28
-0.27
-0.255
-0.26
-0.265
-0.275
-0.27
-0.255
-0.255
-0.24
-0.245
-0.26
-0.25
-0.245
-0.235
-0.225
-0.23
-0.235
-0.24
-0.225
-0.215
-0.21
-0.22
-0.22
-0.215
-0.19
-0.185
-0.18
-0.175
-0.185
-0.175
-0.16
-0.135
-0.125
-0.105
-0.1
-0.095
-0.085
-0.08
-0.08
-0.095
-0.12
-0.115
-0.125
-0.14
-0.15
-0.17
-0.195
-0.195
-0.215
-0.21
-0.23
-0.265
-0.275
-0.27
-0.26
-0.26
-0.265
-0.29
-0.295
-0.295
-0.28
-0.29
-0.295
-0.295
-0.31
-0.295
-0.3
-0.29
-0.3
-0.31
-0.315
-0.31
-0.305
-0.3
-0.3
-0.31
-0.31
-0.29
-0.29
-0.285
-0.285
-0.285
-0.285
-0.275
-0.265
-0.25
-0.245
-0.25
-0.245
-0.25
-0.25
-0.255
-0.255
-0.275
-0.285
-0.29
-0.29
-0.295
-0.305
-0.31
-0.315
-0.305
-0.29
-0.26
-0.245
-0.235
-0.24
-0.24
-0.225
-0.215
-0.215
-0.225
-0.24
-0.245
-0.25
-0.24
-0.25
-0.26
-0.27
-0.265
-0.265
-0.265
-0.265
-0.28
-0.295
-0.285
-0.29
-0.275
-0.285
-0.285
-0.285
-0.265
-0.255
-0.25
-0.27
-0.28
-0.27
-0.25
-0.255
-0.25
-0.255
-0.265
-0.275
-0.265
-0.265
-0.26
-0.275
-0.29
-0.295
-0.295
-0.29
-0.295
-0.3
-0.32
-0.32
-0.315
-0.32
-0.315
-0.33
-0.335
-0.345
-0.345
-0.34
-0.345
-0.34
-0.345
-0.355
-0.335
-0.31
-0.28
-0.265
-0.255
-0.255
-0.245
-0.245
-0.235
-0.23
-0.235
-0.21
-0.185
-0.145
-0.13
-0.09
-0.025
0.06
0.16
0.265
0.365
0.5
0.61
0.655
0.73
0.795
0.815
0.73
0.59
0.4
0.195
0.02
-0.08
-0.13
-0.175
-0.215
-0.225
-0.225
-0.215
-0.22
-0.25
-0.275
-0.295
-0.295
-0.295
-0.3
-0.31
-0.325
-0.325
-0.31
-0.3
-0.305
-0.325
-0.33
-0.33
-0.32
-0.31
-0.315
-0.325
-0.325
-0.31
-0.285
-0.275
-0.27
-0.29
-0.295
-0.29
-0.26
-0.255
-0.25
-0.26
-0.27
-0.255
-0.255
-0.26
-0.26
-0.275
-0.295
-0.275
-0.265
-0.26
-0.255
-0.27
-0.265
-0.255
-0.255
-0.25
-0.24
-0.25
-0.26
-0.24
-0.23
-0.23
-0.21
-0.225
-0.23
-0.215
-0.205
-0.2
-0.19
-0.195
-0.2
-0.19
-0.175
-0.165
-0.16
-0.165
-0.16
-0.15
-0.135
-0.135
-0.14
-0.16
-0.175
-0.17
-0.175
-0.18
-0.195
-0.2
-0.22
-0.21
-0.215
-0.215
-0.215
-0.22
-0.235
-0.25
-0.25
-0.255
-0.27
-0.29
-0.295
-0.295
-0.29
-0.3
-0.3
-0.305
-0.33
-0.33
-0.32
-0.32
-0.315
-0.325
-0.325
-0.32
-0.305
-0.3
-0.305
-0.315
-0.32
-0.31
-0.31
-0.295
-0.3
-0.31
-0.315
-0.31
-0.305
-0.295
-0.3
-0.3
-0.31
-0.305
-0.3
-0.29
-0.3
-0.3
-0.305
-0.295
-0.285
-0.29
-0.285
-0.285
-0.305
-0.3
-0.29
-0.285
-0.285
-0.29
-0.295
-0.295
-0.29
-0.28
-0.28
-0.28
-0.295
-0.295
-0.29
-0.285
-0.285
-0.295
-0.3
-0.29
-0.29
-0.275
-0.285
-0.29
-0.305
-0.3
-0.285
-0.29
-0.29
-0.3
-0.305
-0.3
-0.305
-0.295
-0.29
-0.3
-0.32
-0.31
-0.305
-0.3
-0.285
-0.305
-0.31
-0.305
-0.29
-0.285
-0.29
-0.295
-0.31
-0.3
-0.3
-0.285
-0.28
-0.305
-0.305
-0.305
-0.295
-0.29
-0.295
-0.3
-0.305
-0.3
-0.3
-0.295
-0.29
-0.29
-0.285
-0.27
-0.275
-0.27
-0.26
-0.275
-0.285
-0.29
-0.275
-0.255
-0.24
-0.225
-0.215
-0.195
-0.145
-0.065
0.025
0.11
0.2
0.325
0.465
0.59
0.7
0.785
0.85
0.87
0.795
0.625
0.405
0.18
-0.035
-0.165
-0.26
-0.3
-0.33
-0.34
-0.32
-0.285
-0.27
-0.275
-0.285
-0.29
-0.295
-0.305
-0.305
-0.305
-0.31
-0.325
-0.335
-0.33
-0.32
-0.315
-0.32
-0.32
-0.34
-0.335
-0.34
-0.33
-0.335
-0.35
-0.37
-0.36
-0.35
-0.35
-0.35
-0.34
-0.35
-0.35
-0.345
-0.33
-0.33
-0.32
-0.345
-0.34
-0.32
-0.3
-0.31
-0.315
-0.325
-0.3
-0.295
-0.27
-0.275
-0.285
-0.28
-0.255
-0.255
-0.23
-0.22
-0.235
-0.235
-0.225
-0.215
-0.19
-0.185
-0.18
-0.195
-0.18
-0.17
-0.15
-0.15
-0.15
-0.14
-0.14
-0.115
-0.115
-0.125
-0.145
-0.15
-0.145
-0.145
-0.15
-0.155
-0.17
-0.185
-0.19
-0.185
-0.2
-0.215
-0.23
-0.255
-0.255
-0.265
-0.26
-0.26
-0.275
-0.295
-0.3
-0.305
-0.305
-0.315
-0.315
-0.33
-0.33
-0.325
-0.315
-0.32
-0.32
-0.335
-0.335
-0.325
-0.315
-0.315
-0.315
-0.33
-0.32
-0.32
-0.315
-0.32
-0.325
-0.33
-0.325
-0.32
-0.305
-0.305
-0.31
-0.325
-0.315
-0.3
-0.29
-0.3
-0.305
-0.32
-0.315
-0.305
-0.3
-0.305
-0.32
-0.325
-0.32
-0.315
-0.315
-0.33
-0.325
-0.33
-0.33
-0.325
-0.3
-0.305
-0.31
-0.31
-0.31
-0.305
-0.29
-0.3
-0.305
-0.325
-0.32
-0.305
-0.29
-0.29
-0.295
-0.3
-0.29
-0.285
-0.28
-0.275
-0.29
-0.29
-0.29
-0.29
-0.29
-0.29
-0.31
-0.315
-0.33
-0.32
-0.315
-0.31
-0.32
-0.33
-0.325
-0.315
-0.305
-0.315
-0.315
-0.325
-0.335
-0.325
-0.315
-0.325
-0.335
-0.35
-0.35
-0.34
-0.34
-0.35
-0.365
-0.365
-0.365
-0.355
-0.34
-0.345
-0.355
-0.37
-0.365
-0.35
-0.345
-0.35
-0.36
-0.365
-0.365
-0.35
-0.345
-0.34
-0.36
-0.36
-0.345
-0.335
-0.335
-0.34
-0.35
-0.345
-0.345
-0.325
-0.315
-0.3
-0.305
-0.295
-0.27
-0.265
-0.25
-0.255
-0.275
-0.27
-0.23
-0.2
-0.17
-0.145
-0.135
-0.13
-0.085
0.005
0.1
0.205
0.295
0.41
0.545
0.665
0.76
0.845
0.885
0.825
0.67
0.47
0.26
0.03
-0.135
-0.245
-0.32
-0.35
-0.33
-0.3
-0.28
-0.295
-0.29
-0.3
-0.3
-0.31
-0.33
-0.335
-0.34
-0.345
-0.35
-0.355
-0.355
-0.36
-0.36
-0.35
-0.34
-0.335
-0.34
-0.35
-0.34
-0.325
-0.315
-0.31
-0.31
-0.325
-0.32
-0.315
-0.31
-0.3
-0.305
-0.3
-0.285
-0.275
-0.26
-0.26
-0.27
-0.28
-0.275
-0.255
-0.245
-0.245
-0.245
-0.255
-0.25
-0.245
-0.23
-0.23
-0.235
-0.235
-0.235
-0.235
-0.22
-0.23
-0.225
-0.235
-0.22
-0.22
-0.215
-0.21
-0.2
-0.22
-0.2
-0.195
-0.18
-0.175
-0.18
-0.18
-0.175
-0.145
-0.14
-0.145
-0.155
-0.17
-0.175
-0.18
-0.2
-0.2
-0.21
-0.23
-0.235
-0.235
-0.24
-0.25
-0.275
-0.29
-0.285
-0.265
-0.26
-0.275
-0.27
-0.275
-0.275
-0.255
-0.255
-0.265
-0.27
-0.275
-0.27
-0.26
-0.255
-0.265
-0.27
-0.27
-0.265
-0.27
-0.265
-0.265
-0.275
-0.28
-0.27
-0.265
-0.255
-0.26
-0.245
-0.24
-0.215
-0.18
-0.16
-0.13
-0.095
-0.025
0.105
0.23
0.34
0.42
0.53
0.645
0.755
0.82
0.82
0.76
0.645
0.51
0.355
0.165
-0.005
-0.12
-0.15
-0.175
-0.215
-0.25
-0.255
-0.27
-0.275
-0.285
-0.285
-0.285
-0.285
-0.295
-0.315
-0.315
-0.32
-0.315
-0.31
-0.315
-0.315
-0.325
-0.31
-0.305
-0.3
-0.3
-0.305
-0.315
-0.305
-0.305
-0.3
-0.305
-0.315
-0.315
-0.31
-0.3
-0.295
-0.295
-0.31
-0.31
-0.31
-0.3
-0.29
-0.29
-0.305
-0.31
-0.295
-0.28
-0.28
-0.285
-0.28
-0.305
-0.295
-0.295
-0.28
-0.275
-0.275
-0.28
-0.265
-0.25
-0.25
-0.24
-0.255
-0.255
-0.24
-0.235
-0.225
-0.225
-0.23
-0.23
-0.225
-0.22
-0.21
-0.22
-0.22
-0.22
-0.205
-0.185
-0.17
-0.16
-0.155
-0.175
-0.165
-0.155
-0.155
-0.155
-0.165
-0.18
-0.19
-0.17
-0.17
-0.18
-0.21
-0.225
-0.225
-0.23
-0.235
-0.24
-0.25
-0.255
-0.255
-0.255
-0.255
-0.255
-0.27
-0.275
-0.28
-0.28
-0.275
-0.265
-0.28
-0.29
-0.29
-0.29
-0.28
-0.285
-0.29
-0.3
-0.3
-0.285
-0.29
-0.28
-0.29
-0.3
-0.3
-0.28
-0.29
-0.285
-0.29
-0.305
-0.29
-0.285
-0.28
-0.285
-0.29
-0.31
-0.315
-0.31
-0.305
-0.325
-0.335
-0.35
-0.345
-0.335
-0.31
-0.28
-0.275
-0.285
-0.27
-0.265
-0.26
-0.26
-0.28
-0.285
-0.285
-0.275
-0.28
-0.265
-0.285
-0.295
-0.28
-0.285
-0.28
-0.3
-0.31
-0.325
-0.32
-0.32
-0.315
-0.325
-0.34
-0.345
-0.345
-0.34
-0.33
-0.33
-0.345
-0.345
-0.34
-0.33
-0.315
-0.32
-0.33
-0.35
-0.35
-0.345
-0.345
-0.345
-0.355
-0.37
-0.37
-0.365
-0.35
-0.36
-0.37
-0.39
-0.395
-0.395
-0.385
-0.375
-0.4
-0.4
-0.39
-0.355
-0.325
-0.32
-0.32
-0.31
-0.295
-0.275
-0.25
-0.23
-0.215
-0.2
-0.17
-0.125
-0.05
0.055
0.155
0.25
0.37
0.505
0.63
0.705
0.76
0.815
0.82
0.745
0.615
0.445
0.24
0.06
-0.055
-0.12
-0.165
-0.205
-0.23
-0.235
-0.225
-0.225
-0.225
-0.255
-0.275
-0.29
-0.29
-0.305
-0.305
-0.31
-0.33
-0.345
-0.34
-0.345
-0.35
-0.365
-0.375
-0.385
-0.37
-0.36
-0.35
-0.36
-0.375
-0.37
-0.365
-0.365
-0.36
-0.37
-0.385
-0.39
-0.385
-0.385
-0.37
-0.375
-0.355
-0.35
-0.315
-0.29
-0.28
-0.28
-0.28
-0.29
-0.27
-0.26
-0.245
-0.245
-0.26
-0.255
-0.245
-0.24
-0.235
-0.24
-0.245
-0.26
-0.255
-0.245
-0.25
-0.245
-0.255
-0.26
-0.25
-0.245
-0.245
-0.245
-0.255
-0.255
-0.23
-0.235
-0.23
-0.225
-0.22
-0.215
-0.215
-0.215
-0.21
-0.22
-0.225
-0.23
-0.235
-0.23
-0.23
-0.245
-0.24
-0.25
-0.25
-0.25
-0.25
-0.27
-0.28
-0.285
-0.29
-0.275
-0.275
-0.275
-0.29
-0.295
-0.29
-0.29
-0.285
-0.275
-0.275
-0.28
-0.255
-0.24
-0.225
-0.23
-0.23
-0.235
-0.23
-0.22
-0.225
-0.225
-0.235
-0.24
-0.235
-0.225
-0.23
-0.225
-0.245
-0.26
-0.255
-0.25
-0.245
-0.255
-0.265
-0.285
-0.27
-0.26
-0.265
-0.27
-0.28
-0.28
-0.285
-0.28
-0.28
-0.29
-0.3
-0.305
-0.31
-0.31
-0.295
-0.3
-0.31
-0.325
-0.31
-0.31
-0.29
-0.295
-0.305
-0.31
-0.305
-0.3
-0.29
-0.295
-0.305
-0.295
-0.29
-0.28
-0.275
-0.28
-0.29
-0.3
-0.295
-0.28
-0.26
-0.26
-0.255
-0.255
-0.245
-0.235
-0.23
-0.23
-0.245
-0.255
-0.26
-0.26
-0.26
-0.265
-0.27
-0.29
-0.285
-0.29
-0.295
-0.295
-0.305
-0.31
-0.315
-0.315
-0.305
-0.3
-0.31
-0.315
-0.305
-0.31
-0.3
-0.315
-0.315
-0.31
-0.315
-0.315
-0.305
-0.31
-0.315
-0.32
-0.32
-0.325
-0.31
-0.31
-0.315
-0.315
-0.305
-0.305
-0.29
-0.29
-0.295
-0.295
-0.3
-0.29
-0.29
-0.29
-0.295
-0.305
-0.295
-0.29
-0.28
-0.29
-0.29
-0.295
-0.28
-0.255
-0.235
-0.225
-0.215
-0.195
-0.135
-0.045
0.07
0.195
0.31
0.42
0.55
0.68
0.76
0.84
0.895
0.89
0.815
0.665
0.475
0.25
0.03
-0.135
-0.23
-0.285
-0.315
-0.325
-0.315
-0.285
-0.26
-0.26
-0.275
-0.28
-0.29
-0.315
-0.305
-0.3
-0.295
-0.3
-0.3
-0.305
-0.31
-0.305
-0.3
-0.31
-0.315
-0.315
-0.315
-0.315
-0.31
-0.32
-0.325
-0.325
-0.33
-0.32
-0.325
-0.325
-0.325
-0.33
-0.32
-0.32
-0.32
-0.32
-0.32
-0.315
-0.305
-0.305
-0.3
-0.3
-0.3
-0.305
-0.29
-0.28
-0.265
-0.255
-0.25
-0.25
-0.25
-0.23
-0.22
-0.225
-0.24
-0.25
-0.24
-0.24
-0.23
-0.225
-0.25
-0.235
-0.215
-0.21
-0.195
-0.2
-0.2
-0.205
-0.19
-0.18
-0.17
-0.16
-0.17
-0.165
-0.16
-0.165
-0.15
-0.16
-0.17
-0.17
-0.175
-0.17
-0.175
-0.185
-0.22
-0.225
-0.225
-0.23
-0.225
-0.235
-0.25
-0.25
-0.255
-0.25
-0.255
-0.26
-0.27
-0.295
-0.285
-0.285
-0.28
-0.285
-0.29
-0.28
-0.275
-0.27
-0.265
-0.275
-0.275
-0.28
-0.28
-0.275
-0.255
-0.27
-0.285
-0.295
-0.29
-0.29
-0.28
-0.28
-0.28
-0.29
-0.27
-0.265
-0.255
-0.26
-0.265
-0.27
-0.265
-0.26
-0.26
-0.275
-0.275
-0.28
-0.265
-0.265
-0.26
-0.265
-0.275
-0.28
-0.27
-0.265
-0.255
-0.265
-0.285
-0.295
-0.29
-0.285
-0.28
-0.285
-0.29
-0.29
-0.285
-0.26
-0.255
-0.25
-0.265
-0.275
-0.275
-0.275
-0.265
-0.265
-0.28
-0.285
-0.285
-0.275
-0.265
-0.27
-0.28
-0.29
-0.28
-0.265
-0.26
-0.27
-0.28
-0.285
-0.265
-0.255
-0.245
-0.245
-0.255
-0.255
-0.235
-0.22
-0.2
-0.215
-0.195
-0.18
-0.125
-0.04
0.05
0.135
0.22
0.325
0.46
0.575
0.675
0.78
0.845
0.855
0.79
0.66
0.48
0.265
0.05
-0.115
-0.23
-0.295
-0.34
-0.345
-0.31
-0.28
-0.245
-0.235
-0.255
-0.265
-0.285
-0.295
-0.3
-0.305
-0.295
-0.31
-0.315
-0.315
-0.31
-0.31
-0.31
-0.31
-0.315
-0.32
-0.32
-0.32
-0.315
-0.325
-0.335
-0.345
-0.32
-0.32
-0.31
-0.31
-0.32
-0.32
-0.315
-0.31
-0.295
-0.295
-0.3
-0.3
-0.29
-0.285
-0.28
-0.28
-0.285
-0.29
-0.285
-0.275
-0.275
-0.27
-0.275
-0.285
-0.265
-0.255
-0.245
-0.24
-0.25
-0.255
-0.245
-0.235
-0.235
-0.23
-0.235
-0.225
-0.215
-0.2
-0.195
-0.205
-0.215
-0.235
-0.225
-0.215
-0.21
-0.21
-0.215
-0.22
-0.215
-0.21
-0.2
-0.21
-0.23
-0.24
-0.23
-0.23
-0.225
-0.24
-0.245
-0.255
-0.245
-0.245
-0.245
-0.25
-0.265
-0.285
-0.275
-0.275
-0.265
-0.275
-0.295
-0.31
-0.305
-0.295
-0.3
-0.295
-0.285
-0.285
-0.285
-0.27
-0.25
-0.255
-0.26
-0.275
-0.28
-0.26
-0.27
-0.27
-0.28
-0.28
-0.275
-0.27
-0.27
-0.26
-0.27
-0.275
-0.265
-0.255
-0.24
-0.26
-0.27
-0.275
-0.275
-0.27
-0.275
-0.27
-0.27
-0.27
-0.26
-0.255
-0.255
-0.26
-0.265
-0.28
-0.28
-0.28
-0.265
-0.265
-0.275
-0.295
-0.29
-0.28
-0.285
-0.28
-0.295
-0.3
-0.3
-0.285
-0.285
-0.275
-0.29
-0.295
-0.295
-0.295
-0.29
-0.29
-0.3
-0.31
-0.3
-0.295
-0.285
-0.285
-0.285
-0.29
-0.285
-0.28
-0.275
-0.27
-0.275
-0.275
-0.245
-0.225
-0.23
-0.245
-0.255
-0.28
-0.26
-0.26
-0.26
-0.265
-0.265
-0.265
-0.265
-0.255
-0.25
-0.245
-0.26
-0.26
-0.25
-0.235
-0.235
-0.24
-0.25
-0.255
-0.26
-0.245
-0.245
-0.25
-0.255
-0.245
-0.215
-0.19
-0.165
-0.13
-0.045
0.055
0.14
0.24
0.35
0.465
0.57
0.63
0.705
0.775
0.8
0.75
0.64
0.515
0.34
0.155
0.01
-0.08
-0.15
-0.18
-0.21
-0.22
-0.21
-0.21
-0.225
-0.235
-0.235
-0.245
-0.245
-0.245
-0.255
-0.26
-0.25
-0.25
-0.24
-0.245
-0.255
-0.265
-0.245
-0.235
-0.23
-0.24
-0.26
-0.265
-0.25
-0.245
-0.255
-0.255
-0.265
-0.26
-0.255
-0.245
-0.245
-0.26
-0.27
-0.28
-0.27
-0.265
-0.26
-0.27
-0.275
-0.29
-0.28
-0.28
-0.27
-0.285
-0.29
-0.305
-0.3
-0.29
-0.3
-0.31
-0.305
-0.31
-0.29
-0.285
-0.28
-0.285
-0.295
-0.285
-0.285
-0.265
-0.245
-0.245
-0.24
-0.24
-0.235
-0.225
-0.21
-0.205
-0.215
-0.22
-0.185
-0.17
-0.145
-0.14
-0.135
-0.145
-0.135
-0.11
-0.105
-0.11
-0.13
-0.13
-0.135
-0.13
-0.125
-0.135
-0.145
-0.16
-0.165
-0.165
-0.16
-0.18
-0.195
-0.2
-0.21
-0.21
-0.215
-0.23
-0.245
-0.26
-0.26
-0.265
-0.27
-0.275
-0.285
-0.29
-0.29
-0.285
-0.285
-0.285
-0.295
-0.305
-0.3
-0.295
-0.29
-0.295
-0.29
-0.285
-0.28
-0.265
-0.265
-0.265
-0.27
-0.275
-0.255
-0.25
-0.24
-0.245
-0.245
-0.235
-0.235
-0.215
-0.2
-0.205
-0.215
-0.215
-0.215
-0.2
-0.195
-0.21
-0.215
-0.21
-0.2
-0.195
-0.185
-0.19
-0.195
-0.195
-0.19
-0.185
-0.175
-0.18
-0.195
-0.2
-0.19
-0.19
-0.175
-0.165
-0.165
-0.13
-0.09
-0.03
0.065
0.14
0.215
0.28
0.37
0.465
0.56
0.635
0.68
0.71
0.71
0.66
0.55
0.385
0.2
0.025
-0.095
-0.14
-0.145
-0.16
-0.185
-0.21
-0.21
-0.2
-0.2
-0.215
-0.23
-0.25
-0.26
-0.265
-0.26
-0.27
-0.28
-0.275
-0.275
-0.25
-0.25
-0.25
-0.275
-0.285
-0.27
-0.265
-0.255
-0.27
-0.275
-0.295
-0.29
-0.28
-0.295
-0.295
-0.31
-0.32
-0.31
-0.295
-0.295
-0.3
-0.305
-0.32
-0.3
-0.29
-0.29
-0.29
-0.3
-0.31
-0.285
-0.29
-0.285
-0.285
-0.3
-0.295
-0.275
-0.26
-0.245
-0.245
-0.24
-0.24
-0.225
-0.215
-0.205
-0.205
-0.215
-0.215
-0.205
-0.19
-0.17
-0.165
-0.165
-0.16
-0.155
-0.135
-0.13
-0.125
-0.14
-0.135
-0.125
-0.11
-0.105
-0.11
-0.115
-0.125
-0.13
-0.13
-0.14
-0.145
-0.165
-0.175
-0.18
-0.185
-0.185
-0.2
-0.22
-0.23
-0.23
-0.225
-0.23
-0.245
-0.255
-0.265
-0.26
-0.26
-0.26
-0.265
-0.275
-0.27
-0.265
-0.26
-0.25
-0.265
-0.265
-0.275
-0.26
-0.255
-0.255
-0.255
-0.255
-0.275
-0.255
-0.25
-0.25
-0.26
-0.265
-0.265
-0.255
-0.235
-0.235
-0.225
-0.245
-0.25
-0.235
-0.225
-0.225
-0.235
-0.245
-0.255
-0.245
-0.25
-0.245
-0.245
-0.25
-0.255
-0.245
-0.245
-0.245
-0.255
-0.255
-0.27
-0.255
-0.24
-0.255
-0.265
-0.265
-0.285
-0.265
-0.27
-0.27
-0.29
-0.295
-0.3
-0.29
-0.285
-0.28
-0.285
-0.295
-0.305
-0.3
-0.29
-0.29
-0.3
-0.305
-0.31
-0.29
-0.285
-0.285
-0.3
-0.3
-0.3
-0.295
-0.28
-0.28
-0.29
-0.285
-0.3
-0.295
-0.28
-0.28
-0.29
-0.29
-0.28
-0.27
-0.255
-0.25
-0.25
-0.23
-0.235
-0.225
-0.215
-0.22
-0.24
-0.245
-0.245
-0.245
-0.24
-0.24
-0.245
-0.25
-0.25
-0.235
-0.24
-0.24
-0.24
-0.25
-0.24
-0.225
-0.22
-0.23
-0.245
-0.25
-0.25
-0.26
-0.24
-0.235
-0.26
-0.265
-0.28
-0.285
-0.265
-0.265
-0.275
-0.29
-0.295
-0.29
-0.28
-0.28
-0.285
-0.28
-0.28
-0.265
-0.26
-0.25
-0.25
-0.26
-0.27
-0.26
-0.26
-0.255
-0.27
-0.28
-0.285
-0.265
-0.255
-0.245
-0.25
-0.235
-0.24
-0.23
-0.215
-0.205
-0.21
-0.205
-0.205
-0.18
-0.175
-0.17
-0.16
-0.15
-0.125
-0.095
-0.07
-0.01
0.065
0.165
0.27
0.405
0.54
0.665
0.77
0.86
0.94
0.97
0.91
0.745
0.515
0.275
0.06
-0.1
-0.2
-0.27
-0.325
-0.35
-0.33
-0.285
-0.25
-0.255
-0.27
-0.28
-0.295
-0.29
-0.295
-0.285
-0.295
-0.315
-0.325
-0.315
-0.315
-0.305
-0.31
-0.32
-0.335
-0.33
-0.31
-0.31
-0.305
-0.31
-0.31
-0.295
-0.285
-0.285
-0.285
-0.275
-0.27
-0.255
-0.235
-0.235
-0.24
-0.25
-0.25
-0.24
-0.23
-0.235
-0.23
-0.235
-0.235
-0.22
-0.22
-0.215
-0.215
-0.235
-0.235
-0.215
-0.205
-0.2
-0.21
-0.22
-0.23
-0.215
-0.205
-0.205
-0.21
-0.225
-0.23
-0.215
-0.195
-0.2
-0.185
-0.175
-0.18
-0.165
-0.155
-0.15
-0.15
-0.15
-0.15
-0.13
-0.115
-0.12
-0.115
-0.125
-0.13
-0.11
-0.105
-0.11
-0.115
-0.15
-0.145
-0.14
-0.12
-0.12
-0.13
-0.13
-0.15
-0.155
-0.14
-0.15
-0.165
-0.175
-0.185
-0.18
-0.18
-0.19
-0.2
-0.21
-0.21
-0.21
-0.205
-0.2
-0.2
-0.205
-0.215
-0.215
-0.21
-0.205
-0.195
-0.21
-0.205
-0.2
-0.195
-0.185
-0.17
-0.185
-0.19
-0.19
-0.195
-0.195
-0.2
-0.205
-0.215
-0.205
-0.205
-0.205
-0.215
-0.225
-0.225
-0.215
-0.21
-0.205
-0.215
-0.22
-0.215
-0.205
-0.19
-0.18
-0.19
-0.215
-0.225
-0.215
-0.22
-0.22
-0.205
-0.215
-0.23
-0.22
-0.215
-0.215
-0.21
-0.215
-0.23
-0.225
-0.215
-0.205
-0.22
-0.23
-0.25
-0.225
-0.225
-0.23
-0.24
-0.25
-0.25
-0.23
-0.22
-0.225
-0.245
-0.25
-0.26
-0.26
-0.255
-0.26
-0.265
-0.275
-0.28
-0.275
-0.275
-0.26
-0.265
-0.27
-0.275
-0.27
-0.27
-0.265
-0.28
-0.285
-0.29
-0.27
-0.28
-0.28
-0.29
-0.295
-0.31
-0.305
-0.295
-0.285
-0.275
-0.275
-0.27
-0.265
-0.255
-0.24
-0.24
-0.235
-0.245
-0.245
-0.225
-0.22
-0.22
-0.22
-0.21
-0.195
-0.18
-0.165
-0.14
-0.13
-0.135
-0.11
-0.06
0.015
0.125
0.215
0.32
0.45
0.6
0.73
0.835
0.93
1.005
1.01
0.925
0.72
0.49
0.255
0.055
-0.095
-0.17
-0.23
-0.255
-0.245
-0.21
-0.185
-0.185
-0.205
-0.225
-0.225
-0.25
-0.255
-0.26
-0.27
-0.285
-0.3
-0.31
-0.31
-0.29
-0.295
-0.315
-0.33
-0.33
-0.315
-0.31
-0.31
-0.32
-0.315
-0.305
-0.29
-0.26
-0.255
-0.26
-0.26
-0.26
-0.25
-0.245
-0.25
-0.26
-0.28
-0.27
-0.265
-0.25
-0.25
-0.23
-0.235
-0.23
-0.22
-0.205
-0.21
-0.205
-0.215
-0.215
-0.205
-0.21
-0.2
-0.2
-0.21
-0.19
-0.185
-0.18
-0.165
-0.175
-0.18
-0.185
-0.18
-0.17
-0.17
-0.175
-0.185
-0.185
-0.175
-0.175
-0.18
-0.175
-0.175
-0.18
-0.18
-0.175
-0.175
-0.175
-0.18
-0.19
-0.175
-0.175
-0.18
-0.2
-0.2
-0.205
-0.2
-0.19
-0.205
-0.21
-0.215
-0.225
-0.225
-0.215
-0.22
-0.225
-0.23
-0.23
-0.225
-0.225
-0.225
-0.23
-0.235
-0.24
-0.225
-0.23
-0.22
-0.22
-0.235
-0.24
-0.225
-0.21
-0.21
-0.215
-0.225
-0.235
-0.225
-0.21
-0.205
-0.215
-0.23
-0.235
-0.23
-0.225
-0.22
-0.225
-0.235
-0.235
-0.235
-0.225
-0.215
-0.22
-0.23
-0.225
-0.205
-0.195
-0.19
-0.205
-0.22
-0.225
-0.215
-0.21
-0.205
-0.215
-0.215
-0.225
-0.235
-0.225
-0.235
-0.25
-0.255
-0.255
-0.25
-0.24
-0.235
-0.25
-0.265
-0.265
-0.255
-0.25
-0.25
-0.25
-0.265
-0.255
-0.25
-0.23
-0.225
-0.235
-0.25
-0.25
-0.255
-0.235
-0.235
-0.24
-0.23
-0.22
-0.205
-0.18
-0.165
-0.14
-0.075
0.02
0.135
0.24
0.35
0.48
0.6
0.69
0.775
0.825
0.795
0.685
0.52
0.295
0.095
-0.035
-0.11
-0.15
-0.19
-0.195
-0.185
-0.17
-0.17
-0.185
-0.225
-0.235
-0.235
-0.24
-0.25
-0.26
-0.265
-0.28
-0.265
-0.255
-0.25
-0.26
-0.27
-0.275
-0.27
-0.26
-0.275
-0.27
-0.285
-0.285
-0.28
-0.26
-0.26
-0.265
-0.275
-0.275
-0.26
-0.25
-0.25
-0.26
-0.265
-0.265
-0.25
-0.25
-0.24
-0.245
-0.255
-0.265
-0.245
-0.24
-0.23
-0.23
-0.24
-0.24
-0.235
-0.225
-0.215
-0.22
-0.215
-0.22
-0.21
-0.205
-0.195
-0.205
-0.21
-0.205
-0.185
-0.165
-0.165
-0.15
-0.14
-0.125
-0.115
-0.105
-0.11
-0.12
-0.125
-0.135
-0.135
-0.13
-0.14
-0.145
-0.15
-0.17
-0.17
-0.18
-0.185
-0.2
-0.22
-0.23
-0.225
-0.235
-0.24
-0.245
-0.25
-0.27
-0.26
-0.27
-0.255
-0.265
-0.265
-0.275
-0.28
-0.275
-0.265
-0.27
-0.27
-0.29
-0.27
-0.255
-0.24
-0.245
-0.25
-0.255
-0.24
-0.23
-0.225
-0.215
-0.225
-0.225
-0.22
-0.205
-0.22
-0.225
-0.225
-0.22
-0.22
-0.205
-0.205
-0.215
-0.22
-0.225
-0.215
-0.225
-0.22
-0.23
-0.24
-0.245
-0.235
-0.23
-0.235
-0.24
-0.245
-0.245
-0.24
-0.235
-0.255
-0.265
-0.27
-0.27
-0.265
-0.26
-0.265
-0.265
-0.275
-0.28
-0.26
-0.255
-0.245
-0.24
-0.25
-0.255
-0.25
-0.25
-0.245
-0.245
-0.25
-0.24
-0.255
-0.25
-0.25
-0.245
-0.25
-0.26
-0.25
-0.235
-0.23
-0.235
-0.25
-0.255
-0.25
-0.245
-0.25
-0.24
-0.25
-0.245
-0.24
-0.235
-0.23
-0.23
-0.245
-0.25
-0.23
-0.24
-0.235
-0.235
-0.23
-0.24
-0.23
-0.235
-0.23
-0.23
-0.245
-0.245
-0.245
-0.23
-0.235
-0.235
-0.245
-0.25
-0.24
-0.23
-0.22
-0.21
-0.19
-0.17
-0.15
-0.12
-0.07
0.015
0.11
0.21
0.295
0.415
0.53
0.63
0.7
0.77
0.83
0.82
0.72
0.555
0.375
0.18
0.025
-0.06
-0.12
-0.16
-0.185
-0.175
-0.165
-0.165
-0.18
-0.205
-0.225
-0.235
-0.24
-0.24
-0.25
-0.265
-0.27
-0.28
-0.27
-0.27
-0.27
-0.27
-0.27
-0.27
-0.265
-0.26
-0.26
-0.27
-0.275
-0.28
-0.275
-0.26
-0.26
-0.265
-0.26
-0.265
-0.245
-0.235
-0.23
-0.235
-0.25
-0.245
-0.225
-0.21
-0.205
-0.21
-0.215
-0.22
-0.205
-0.205
-0.21
-0.21
-0.22
-0.215
-0.21
-0.205
-0.22
-0.22
-0.215
-0.21
-0.195
-0.18
-0.185
-0.185
-0.18
-0.18
-0.17
-0.15
-0.16
-0.16
-0.165
-0.155
-0.155
-0.13
-0.13
-0.13
-0.14
-0.13
-0.12
-0.11
-0.1
-0.105
-0.115
-0.12
-0.115
-0.105
-0.115
-0.125
-0.145
-0.15
-0.15
-0.16
-0.155
-0.155
-0.17
-0.175
-0.165
-0.165
-0.17
-0.18
-0.19
-0.195
-0.21
-0.205
-0.2
-0.21
-0.225
-0.225
-0.23
-0.215
-0.22
-0.23
-0.235
-0.245
-0.23
-0.23
-0.23
-0.235
-0.235
-0.235
-0.225
-0.215
-0.215
-0.22
-0.215
-0.21
-0.2
-0.19
-0.19
-0.21
-0.205
-0.205
-0.19
-0.18
-0.18
-0.19
-0.195
-0.195
-0.18
-0.18
-0.19
-0.195
-0.21
-0.21
-0.19
-0.175
-0.18
-0.2
-0.22
-0.2
-0.205
-0.19
-0.19
-0.205
-0.21
-0.21
-0.2
-0.185
-0.185
-0.2
-0.21
-0.205
-0.205
-0.2
-0.2
-0.215
-0.22
-0.225
-0.225
-0.23
-0.22
-0.23
-0.24
-0.25
-0.25
-0.25
-0.245
-0.25
-0.26
-0.26
-0.245
-0.245
-0.24
-0.24
-0.255
-0.255
-0.245
-0.23
-0.225
-0.235
-0.245
-0.245
-0.245
-0.235
-0.23
-0.225
-0.23
-0.225
-0.22
-0.215
-0.2
-0.205
-0.205
-0.22
-0.215
-0.21
-0.2
-0.21
-0.22
-0.225
-0.225
-0.21
-0.22
-0.22
-0.23
-0.235
-0.225
-0.21
-0.21
-0.21
-0.225
-0.225
-0.22
-0.22
-0.23
-0.235
-0.245
-0.24
-0.22
-0.22
-0.21
-0.21
-0.2
-0.185
-0.16
-0.135
-0.115
-0.085
-0.04
0.025
0.15
0.25
0.355
0.47
0.595
0.715
0.835
0.935
1.02
1.04
0.945
0.755
0.53
0.295
0.075
-0.09
-0.18
-0.25
-0.26
-0.235
-0.205
-0.17
-0.165
-0.175
-0.18
-0.185
-0.19
-0.22
-0.225
-0.23
-0.235
-0.235
-0.24
-0.24
-0.25
-0.245
-0.245
-0.24
-0.24
-0.25
-0.255
-0.255
-0.245
-0.245
-0.255
-0.25
-0.26
-0.27
-0.27
-0.265
-0.27
-0.275
-0.285
-0.275
-0.27
-0.25
-0.255
-0.245
-0.245
-0.235
-0.23
-0.21
-0.21
-0.205
-0.21
-0.205
-0.205
-0.195
-0.19
-0.19
-0.195
-0.205
-0.19
-0.185
-0.175
-0.185
-0.19
-0.185
-0.18
-0.165
-0.165
-0.165
-0.17
-0.18
-0.17
-0.165
-0.16
-0.165
-0.17
-0.17
-0.16
-0.155
-0.145
-0.14
-0.155
-0.145
-0.135
-0.125
-0.12
-0.12
-0.135
-0.135
-0.125
-0.125
-0.125
-0.13
-0.16
-0.165
-0.155
-0.17
-0.16
-0.19
-0.2
-0.2
-0.195
-0.195
-0.195
-0.21
-0.215
-0.225
-0.22
-0.22
-0.235
-0.25
-0.245
-0.255
-0.245
-0.235
-0.235
-0.24
-0.24
-0.245
-0.23
-0.22
-0.21
-0.215
-0.215
-0.215
-0.2
-0.2
-0.21
-0.21
-0.22
-0.225
-0.2
-0.205
-0.215
-0.215
-0.225
-0.22
-0.21
-0.2
-0.195
-0.2
-0.21
-0.21
-0.195
-0.195
-0.195
-0.2
-0.215
-0.215
-0.215
-0.2
-0.2
-0.205
-0.225
-0.225
-0.22
-0.225
-0.22
-0.23
-0.235
-0.23
-0.23
-0.215
-0.215
-0.215
-0.225
-0.23
-0.235
-0.22
-0.22
-0.235
-0.25
-0.245
-0.235
-0.22
-0.225
-0.24
-0.24
-0.24
-0.235
-0.22
-0.23
-0.23
-0.24
-0.245
-0.235
-0.225
-0.225
-0.235
-0.24
-0.25
-0.24
-0.235
-0.235
-0.235
-0.245
-0.245
-0.25
-0.24
-0.23
-0.24
-0.24
-0.255
-0.245
-0.235
-0.23
-0.235
-0.24
-0.26
-0.25
-0.245
-0.23
-0.245
-0.25
-0.25
-0.24
-0.24
-0.25
-0.25
-0.25
-0.255
-0.25
-0.245
-0.24
-0.25
-0.255
-0.25
-0.24
-0.24
-0.245
-0.25
-0.245
-0.25
-0.245
-0.235
-0.245
-0.245
-0.245
-0.255
-0.245
-0.235
-0.23
-0.24
-0.235
-0.225
-0.22
-0.215
-0.22
-0.225
-0.22
-0.225
-0.21
-0.22
-0.22
-0.22
-0.23
-0.23
-0.225
-0.225
-0.22
-0.23
-0.235
-0.245
-0.24
-0.23
-0.225
-0.235
-0.23
-0.23
-0.22
-0.195
-0.175
-0.145
-0.14
-0.115
-0.05
0.05
0.155
0.26
0.37
0.48
0.605
0.71
0.805
0.87
0.925
0.925
0.845
0.735
0.58
0.4
0.205
0.04
-0.065
-0.105
-0.155
-0.165
-0.16
-0.135
-0.115
-0.125
-0.15
-0.17
-0.185
-0.195
-0.195
-0.205
-0.215
-0.23
-0.25
-0.25
-0.26
-0.245
-0.27
-0.27
-0.28
-0.29
-0.285
-0.275
-0.28
-0.285
-0.305
-0.31
-0.295
-0.275
-0.265
-0.26
-0.27
-0.265
-0.26
-0.25
-0.25
-0.255
-0.27
-0.265
-0.245
-0.245
-0.235
-0.24
-0.235
-0.235
-0.215
-0.205
-0.215
-0.205
-0.21
-0.2
-0.2
-0.185
-0.2
-0.205
-0.2
-0.2
-0.18
-0.17
-0.17
-0.175
-0.185
-0.18
-0.17
-0.165
-0.175
-0.185
-0.205
-0.195
-0.18
-0.16
-0.165
-0.17
-0.16
-0.145
-0.12
-0.095
-0.1
-0.105
-0.105
-0.11
-0.1
-0.09
-0.09
-0.105
-0.115
-0.12
-0.11
-0.105
-0.11
-0.12
-0.125
-0.13
-0.125
-0.12
-0.12
-0.135
-0.15
-0.16
-0.155
-0.13
-0.145
-0.15
-0.17
-0.165
-0.17
-0.16
-0.165
-0.18
-0.21
-0.205
-0.195
-0.195
-0.195
-0.21
-0.22
-0.22
-0.215
-0.22
-0.21
-0.22
-0.23
-0.225
-0.225
-0.22
-0.22
-0.215
-0.225
-0.24
-0.235
-0.225
-0.23
-0.23
-0.245
-0.245
-0.245
-0.25
-0.24
-0.24
-0.245
-0.235
-0.225
-0.21
-0.21
-0.21
-0.215
-0.22
-0.215
-0.195
-0.19
-0.19
-0.2
-0.19
-0.175
-0.17
-0.17
-0.17
-0.17
-0.17
-0.16
-0.17
-0.17
-0.18
-0.18
-0.18
-0.17
-0.17
-0.185
-0.18
-0.18
-0.185
-0.185
-0.185
-0.19
-0.195
-0.205
-0.205
-0.18
-0.17
-0.16
-0.14
-0.13
-0.115
-0.085
-0.025
0.055
0.13
0.195
0.26
0.335
0.455
0.55
0.605
0.65
0.705
0.745
0.74
0.65
0.53
0.38
0.195
0.05
-0.035
-0.085
-0.135
-0.165
-0.19
-0.19
-0.175
-0.18
-0.19
-0.21
-0.225
-0.215
-0.22
-0.21
-0.21
-0.21
-0.22
-0.22
-0.205
-0.215
-0.22
-0.21
-0.22
-0.215
-0.215
-0.23
-0.24
-0.24
-0.25
-0.235
-0.235
-0.24
-0.24
-0.25
-0.25
-0.25
-0.235
-0.24
-0.235
-0.24
-0.235
-0.23
-0.23
-0.23
-0.215
-0.225
-0.235
-0.22
-0.215
-0.22
-0.215
-0.22
-0.215
-0.205
-0.2
-0.205
-0.205
-0.21
-0.205
-0.19
-0.185
-0.195
-0.195
-0.2
-0.185
-0.175
-0.16
-0.155
-0.155
-0.155
-0.145
-0.13
-0.12
-0.12
-0.13
-0.13
-0.13
-0.11
-0.115
-0.115
-0.12
-0.125
-0.13
-0.115
-0.105
-0.11
-0.11
-0.12
-0.115
-0.12
-0.12
-0.135
-0.15
-0.16
-0.16
-0.16
-0.15
-0.165
-0.18
-0.19
-0.195
-0.2
-0.19
-0.21
-0.225
-0.23
-0.225
-0.22
-0.22
-0.23
-0.25
-0.255
-0.25
-0.245
-0.24
-0.25
-0.265
-0.265
-0.255
-0.24
-0.235
-0.24
-0.25
-0.25
-0.25
-0.225
-0.21
-0.21
-0.2
-0.205
-0.215
-0.205
-0.195
-0.215
-0.215
-0.21
-0.215
-0.21
-0.21
-0.215
-0.21
-0.205
-0.205
-0.18
-0.175
-0.195
-0.195
-0.205
-0.205
-0.195
-0.195
-0.2
-0.205
-0.21
-0.215
-0.205
-0.205
-0.215
-0.22
-0.225
-0.23
-0.225
-0.215
-0.24
-0.235
-0.245
-0.245
-0.245
-0.245
-0.245
-0.25
-0.26
-0.26
-0.255
-0.235
-0.24
-0.245
-0.265
-0.255
-0.245
-0.23
-0.245
-0.25
-0.26
-0.26
-0.26
-0.245
-0.245
-0.245
-0.255
-0.265
-0.27
-0.26
-0.245
-0.245
-0.24
-0.24
-0.23
-0.22
-0.21
-0.195
-0.195
-0.2
-0.175
-0.18
-0.185
-0.185
-0.19
-0.195
-0.195
-0.19
-0.185
-0.185
-0.2
-0.195
-0.185
-0.175
-0.18
-0.18
-0.185
-0.19
-0.195
-0.18
-0.18
-0.19
-0.19
-0.2
-0.18
-0.18
-0.17
-0.15
-0.15
-0.125
-0.115
-0.075
-0.01
0.08
0.175
0.275
0.39
0.515
0.635
0.725
0.8
0.87
0.905
0.865
0.745
0.58
0.39
0.18
0.03
-0.07
-0.135
-0.185
-0.2
-0.18
-0.14
-0.105
-0.105
-0.125
-0.145
-0.15
-0.155
-0.155
-0.16
-0.16
-0.17
-0.175
-0.17
-0.16
-0.17
-0.18
-0.195
-0.205
-0.2
-0.2
-0.22
-0.215
-0.22
-0.225
-0.215
-0.215
-0.215
-0.22
-0.23
-0.22
-0.22
-0.205
-0.205
-0.215
-0.225
-0.225
-0.22
-0.215
-0.21
-0.22
-0.22
-0.215
-0.19
-0.19
-0.185
-0.185
-0.185
-0.185
-0.18
-0.175
-0.185
-0.195
-0.2
-0.2
-0.17
-0.16
-0.17
-0.17
-0.165
-0.155
-0.145
-0.13
-0.14
-0.14
-0.15
-0.145
-0.125
-0.11
-0.115
-0.12
-0.125
-0.115
-0.1
-0.09
-0.095
-0.09
-0.11
-0.1
-0.08
-0.075
-0.075
-0.09
-0.09
-0.095
-0.09
-0.085
-0.085
-0.09
-0.11
-0.11
-0.1
-0.1
-0.115
-0.125
-0.14
-0.14
-0.13
-0.125
-0.13
-0.14
-0.15
-0.165
-0.155
-0.15
-0.15
-0.16
-0.175
-0.185
-0.18
-0.175
-0.185
-0.205
-0.2
-0.195
-0.2
-0.175
-0.185
-0.19
-0.2
-0.2
-0.195
-0.175
-0.18
-0.195
-0.21
-0.205
-0.195
-0.195
-0.2
-0.21
-0.21
-0.205
-0.19
-0.175
-0.18
-0.185
-0.19
-0.185
-0.17
-0.155
-0.165
-0.165
-0.17
-0.165
-0.15
-0.135
-0.145
-0.15
-0.17
-0.165
-0.16
-0.165
-0.165
-0.175
-0.19
-0.185
-0.19
-0.175
-0.18
-0.185
-0.18
-0.19
-0.175
-0.175
-0.175
-0.185
-0.19
-0.19
-0.185
-0.18
-0.18
-0.185
-0.2
-0.21
-0.205
-0.205
-0.215
-0.22
-0.22
-0.22
-0.215
-0.195
-0.195
-0.195
-0.195
-0.195
-0.195
-0.19
-0.19
-0.2
-0.205
-0.19
-0.18
-0.165
-0.165
-0.175
-0.18
-0.185
-0.185
-0.18
-0.175
-0.18
-0.185
-0.185
-0.17
-0.155
-0.14
-0.125
-0.125
-0.1
-0.065
0.025
0.135
0.25
0.34
0.47
0.61
0.745
0.85
0.94
0.975
0.96
0.84
0.665
0.45
0.23
0.025
-0.11
-0.18
-0.22
-0.235
-0.23
-0.21
-0.175
-0.17
-0.19
-0.19
-0.21
-0.215
-0.215
-0.205
-0.205
-0.19
-0.2
-0.215
-0.225
-0.215
-0.2
-0.22
-0.235
-0.235
-0.24
-0.23
-0.23
-0.23
-0.235
-0.245
-0.225
-0.225
-0.205
-0.205
-0.22
-0.235
-0.23
-0.215
-0.205
-0.2
-0.21
-0.22
-0.22
-0.205
-0.19
-0.195
-0.195
-0.205
-0.205
-0.19
-0.18
-0.185
-0.185
-0.195
-0.185
-0.175
-0.16
-0.155
-0.17
-0.175
-0.165
-0.14
-0.13
-0.125
-0.12
-0.135
-0.135
-0.115
-0.11
-0.12
-0.125
-0.14
-0.12
-0.115
-0.1
-0.11
-0.11
-0.115
-0.11
-0.115
-0.115
-0.115
-0.13
-0.145
-0.145
-0.125
-0.125
-0.125
-0.14
-0.145
-0.145
-0.145
-0.135
-0.14
-0.155
-0.165
-0.165
-0.165
-0.165
-0.16
-0.18
-0.19
-0.185
-0.195
-0.175
-0.18
-0.195
-0.2
-0.2
-0.19
-0.175
-0.18
-0.18
-0.18
-0.175
-0.165
-0.17
-0.17
-0.185
-0.19
-0.205
-0.19
-0.185
-0.195
-0.21
-0.215
-0.205
-0.195
-0.185
-0.195
-0.205
-0.21
-0.215
-0.19
-0.19
-0.175
-0.19
-0.195
-0.19
-0.185
-0.18
-0.17
-0.185
-0.195
-0.195
-0.18
-0.175
-0.175
-0.18
-0.19
-0.195
-0.18
-0.165
-0.175
-0.19
-0.205
-0.195
-0.19
-0.185
-0.19
-0.185
-0.19
-0.185
-0.19
-0.17
-0.17
-0.165
-0.175
-0.18
-0.17
-0.17
-0.175
-0.195
-0.2
-0.2
-0.195
-0.18
-0.185
-0.195
-0.2
-0.2
-0.185
-0.18
-0.18
-0.18
-0.19
-0.185
-0.16
-0.145
-0.13
-0.125
-0.125
-0.105
-0.07
-0.015
0.055
0.15
0.235
0.34
0.455
0.565
0.68
0.75
0.81
0.875
0.865
0.785
0.65
0.485
0.265
0.09
-0.01
-0.06
-0.09
-0.125
-0.15
-0.135
-0.13
-0.12
-0.145
-0.17
-0.19
-0.19
-0.195
-0.205
-0.21
-0.215
-0.22
-0.225
-0.215
-0.225
-0.22
-0.23
-0.24
-0.245
-0.235
-0.22
-0.22
-0.22
-0.235
-0.235
-0.225
-0.21
-0.2
-0.205
-0.215
-0.2
-0.21
-0.185
-0.18
-0.19
-0.195
-0.2
-0.195
-0.195
-0.195
-0.205
-0.215
-0.21
-0.2
-0.18
-0.175
-0.185
-0.185
-0.18
-0.17
-0.17
-0.15
-0.15
-0.155
-0.14
-0.115
-0.115
-0.105
-0.115
-0.125
-0.12
-0.105
-0.09
-0.095
-0.1
-0.095
-0.09
-0.075
-0.085
-0.1
-0.105
-0.115
-0.105
-0.105
-0.105
-0.115
-0.13
-0.13
-0.13
-0.115
-0.13
-0.135
-0.15
-0.16
-0.17
-0.17
-0.165
-0.18
-0.185
-0.195
-0.19
-0.195
-0.18
-0.19
-0.195
-0.2
-0.2
-0.19
-0.165
-0.16
-0.16
-0.165
-0.165
-0.16
-0.145
-0.14
-0.145
-0.15
-0.145
-0.14
-0.13
-0.125
-0.145
-0.17
-0.16
-0.15
-0.14
-0.155
-0.165
-0.195
-0.195
-0.19
-0.19
-0.18
-0.175
-0.17
-0.16
-0.14
-0.115
-0.09
-0.065
-0.015
0.08
0.21
0.32
0.41
0.515
0.62
0.745
0.85
0.885
0.9
0.82
0.675
0.495
0.31
0.13
0
-0.055
-0.075
-0.08
-0.085
-0.1
-0.105
-0.13
-0.155
-0.16
-0.17
-0.17
-0.18
-0.195
-0.21
-0.215
-0.205
-0.215
-0.22
-0.235
-0.255
-0.245
-0.245
-0.25
-0.25
-0.265
-0.28
-0.27
-0.265
-0.265
-0.265
-0.275
-0.29
-0.285
-0.275
-0.255
-0.265
-0.265
-0.265
-0.26
-0.255
-0.25
-0.255
-0.26
-0.26
-0.255
-0.235
-0.23
-0.235
-0.235
-0.235
-0.235
-0.23
-0.22
-0.23
-0.22
-0.215
-0.205
-0.18
-0.15
-0.13
-0.125
-0.12
-0.1
-0.085
-0.085
-0.09
-0.095
-0.09
-0.09
-0.09
-0.065
-0.065
-0.065
-0.07
-0.065
-0.06
-0.055
-0.065
-0.075
-0.085
-0.095
-0.1
-0.1
-0.11
-0.13
-0.155
-0.155
-0.16
-0.16
-0.175
-0.18
-0.19
-0.19
-0.2
-0.195
-0.2
-0.205
-0.205
-0.21
-0.2
-0.2
-0.205
-0.21
-0.21
-0.205
-0.205
-0.21
-0.215
-0.215
-0.215
-0.2
-0.185
-0.2
-0.21
-0.22
-0.235
-0.225
-0.215
-0.21
-0.205
-0.195
-0.195
-0.195
-0.18
-0.175
-0.17
-0.18
-0.18
-0.18
-0.175
-0.18
-0.19
-0.2
-0.205
-0.205
-0.2
-0.205
-0.205
-0.215
-0.225
-0.22
-0.225
-0.225
-0.23
-0.235
-0.245
-0.24
-0.24
-0.245
-0.245
-0.235
-0.255
-0.255
-0.26
-0.25
-0.24
-0.245
-0.25
-0.24
-0.23
-0.225
-0.235
-0.245
-0.25
-0.235
-0.23
-0.23
-0.225
-0.235
-0.25
-0.24
-0.24
-0.235
-0.235
-0.235
-0.24
-0.245
-0.255
-0.24
-0.24
-0.255
-0.26
-0.255
-0.235
-0.22
-0.21
-0.215
-0.21
-0.195
-0.19
-0.195
-0.185
-0.195
-0.2
-0.21
-0.195
-0.185
-0.185
-0.2
-0.205
-0.205
-0.2
-0.185
-0.18
-0.19
-0.205
-0.205
-0.19
-0.18
-0.18
-0.185
-0.185
-0.18
-0.17
-0.17
-0.165
-0.165
-0.18
-0.175
-0.165
-0.16
-0.155
-0.17
-0.18
-0.17
-0.17
-0.165
-0.165
-0.18
-0.185
-0.185
-0.175
-0.165
-0.15
-0.135
-0.13
-0.115
-0.09
-0.03
0.05
0.145
0.24
0.36
0.49
0.605
0.705
0.78
0.855
0.905
0.875
0.735
0.535
0.295
0.075
-0.065
-0.14
-0.2
-0.225
-0.215
-0.195
-0.15
-0.14
-0.14
-0.16
-0.17
-0.18
-0.18
-0.18
-0.195
-0.21
-0.215
-0.22
-0.225
-0.22
-0.21
-0.225
-0.225
-0.235
-0.235
-0.235
-0.23
-0.24
-0.25
-0.265
-0.26
-0.265
-0.27
-0.265
-0.26
-0.265
-0.27
-0.265
-0.26
-0.26
-0.265
-0.275
-0.265
-0.26
-0.245
-0.24
-0.245
-0.255
-0.255
-0.25
-0.24
-0.235
-0.215
-0.21
-0.195
-0.175
-0.155
-0.135
-0.13
-0.12
-0.115
-0.1
-0.075
-0.08
-0.075
-0.08
-0.075
-0.065
-0.055
-0.055
-0.055
-0.075
-0.06
-0.045
-0.05
-0.045
-0.045
-0.06
-0.06
-0.055
-0.05
-0.04
-0.045
-0.065
-0.07
-0.08
-0.075
-0.08
-0.1
-0.11
-0.12
-0.12
-0.125
-0.125
-0.15
-0.16
-0.16
-0.155
-0.15
-0.16
-0.175
-0.195
-0.19
-0.18
-0.17
-0.165
-0.165
-0.18
-0.18
-0.165
-0.16
-0.155
-0.17
-0.18
-0.175
-0.17
-0.155
-0.16
-0.15
-0.16
-0.16
-0.15
-0.145
-0.145
-0.145
-0.15
-0.145
-0.145
-0.145
-0.145
-0.155
-0.16
-0.155
-0.145
-0.15
-0.16
-0.17
-0.185
-0.18
-0.175
-0.165
-0.16
-0.175
-0.18
-0.185
-0.175
-0.165
-0.165
-0.165
-0.185
-0.195
-0.19
-0.18
-0.18
-0.18
-0.205
-0.2
-0.19
-0.175
-0.165
-0.165
-0.185
-0.185
-0.185
-0.18
-0.18
-0.19
-0.205
-0.2
-0.185
-0.18
-0.18
-0.19
-0.205
-0.19
-0.16
-0.135
-0.125
-0.105
-0.04
0.065
0.17
0.265
0.375
0.46
0.56
0.675
0.785
0.87
0.88
0.795
0.625
0.405
0.2
0.03
-0.105
-0.195
-0.265
-0.27
-0.22
-0.18
-0.14
-0.155
-0.185
-0.2
-0.19
-0.195
-0.19
-0.205
-0.21
-0.215
-0.2
-0.195
-0.2
-0.205
-0.225
-0.225
-0.22
-0.215
-0.215
-0.23
-0.245
-0.245
-0.235
-0.22
-0.22
-0.235
-0.25
-0.255
-0.235
-0.235
-0.225
-0.24
-0.25
-0.255
-0.24
-0.23
-0.23
-0.245
-0.245
-0.245
-0.235
-0.245
-0.235
-0.245
-0.25
-0.25
-0.25
-0.235
-0.245
-0.26
-0.265
-0.26
-0.24
-0.23
-0.21
-0.195
-0.195
-0.18
-0.16
-0.135
-0.135
-0.13
-0.135
-0.125
-0.125
-0.12
-0.115
-0.115
-0.12
-0.125
-0.125
-0.12
-0.12
-0.135
-0.14
-0.135
-0.135
-0.145
-0.155
-0.175
-0.195
-0.195
-0.19
-0.185
-0.19
-0.21
-0.215
-0.215
-0.215
-0.215
-0.21
-0.23
-0.245
-0.24
-0.245
-0.245
-0.245
-0.26
-0.275
-0.27
-0.28
-0.265
-0.265
-0.275
-0.285
-0.285
-0.275
-0.27
-0.255
-0.26
-0.26
-0.25
-0.255
-0.255
-0.26
-0.27
-0.265
-0.26
-0.26
-0.235
-0.225
-0.215
-0.2
-0.19
-0.165
-0.165
-0.165
-0.17
-0.19
-0.175
-0.16
-0.155
-0.165
-0.175
-0.195
-0.19
-0.185
-0.185
-0.195
-0.215
-0.22
-0.215
-0.21
-0.2
-0.205
-0.225
-0.225
-0.22
-0.215
-0.21
-0.21
-0.22
-0.23
-0.225
-0.22
-0.22
-0.23
-0.235
-0.245
-0.24
-0.24
-0.235
-0.235
-0.245
-0.26
-0.25
-0.24
-0.235
-0.235
-0.245
-0.26
-0.255
-0.255
-0.27
-0.275
-0.295
-0.31
-0.31
-0.29
-0.27
-0.265
-0.25
-0.25
-0.24
-0.23
-0.21
-0.22
-0.22
-0.225
-0.215
-0.22
-0.21
-0.215
-0.215
-0.22
-0.22
-0.22
-0.215
-0.225
-0.23
-0.235
-0.235
-0.22
-0.21
-0.205
-0.195
-0.18
-0.16
-0.125
-0.075
-0.01
0.08
0.155
0.245
0.35
0.465
0.59
0.64
0.695
0.755
0.78
0.74
0.625
0.47
0.3
0.125
-0.005
-0.06
-0.105
-0.135
-0.175
-0.185
-0.19
-0.19
-0.21
-0.215
-0.235
-0.245
-0.255
-0.255
-0.255
-0.25
-0.255
-0.24
-0.235
-0.24
-0.24
-0.245
-0.245
-0.245
-0.235
-0.22
-0.22
-0.235
-0.245
-0.225
-0.225
-0.22
-0.225
-0.21
-0.215
-0.215
-0.21
-0.21
-0.225
-0.225
-0.235
-0.23
-0.22
-0.22
-0.23
-0.245
-0.265
-0.27
-0.265
-0.255
-0.26
-0.265
-0.265
-0.255
-0.255
-0.24
-0.245
-0.245
-0.25
-0.245
-0.235
-0.22
-0.22
-0.23
-0.24
-0.23
-0.23
-0.225
-0.23
-0.235
-0.25
-0.24
-0.225
-0.205
-0.21
-0.22
-0.22
-0.2
-0.19
-0.165
-0.155
-0.145
-0.145
-0.125
-0.11
-0.1
-0.105
-0.12
-0.13
-0.13
-0.115
-0.115
-0.12
-0.135
-0.14
-0.14
-0.14
-0.145
-0.14
-0.155
-0.16
-0.165
-0.16
-0.16
-0.165
-0.19
-0.21
-0.21
-0.205
-0.22
-0.225
-0.23
-0.245
-0.24
-0.235
-0.235
-0.245
-0.265
-0.275
-0.265
-0.265
-0.265
-0.265
-0.27
-0.275
-0.265
-0.26
-0.26
-0.26
-0.27
-0.275
-0.26
-0.26
-0.255
-0.26
-0.265
-0.29
-0.27
-0.27
-0.265
-0.265
-0.28
-0.29
-0.29
-0.285
-0.265
-0.27
-0.265
-0.26
-0.24
-0.205
-0.18
-0.175
-0.185
-0.195
-0.19
-0.19
-0.18
-0.185
-0.21
-0.205
-0.215
-0.2
-0.2
-0.21
-0.22
-0.235
-0.24
-0.225
-0.225
-0.23
-0.24
-0.25
-0.25
-0.25
-0.245
-0.25
-0.27
-0.28
-0.29
-0.275
-0.28
-0.28
-0.29
-0.305
-0.305
-0.295
-0.285
-0.285
-0.3
-0.315
-0.315
-0.31
-0.3
-0.295
-0.295
-0.305
-0.29
-0.275
-0.275
-0.27
-0.285
-0.29
-0.29
-0.29
-0.28
-0.285
-0.3
-0.305
-0.28
-0.27
-0.25
-0.23
-0.23
-0.23
-0.22
-0.22
-0.225
-0.235
-0.245
-0.26
-0.255
-0.245
-0.245
-0.25
-0.26
-0.27
-0.27
-0.255
-0.24
-0.25
-0.26
-0.27
-0.27
-0.265
-0.265
-0.265
-0.275
-0.29
-0.29
-0.285
-0.28
-0.285
-0.295
-0.31
-0.305
-0.29
-0.285
-0.28
-0.295
-0.295
-0.285
-0.27
-0.26
-0.255
-0.265
-0.265
-0.27
-0.265
-0.255
-0.25
-0.265
-0.275
-0.275
-0.27
-0.26
-0.26
-0.265
-0.275
-0.265
-0.245
-0.215
-0.2
-0.155
-0.135
-0.11
-0.075
-0.035
0.02
0.105
0.19
0.28
0.385
0.5
0.605
0.68
0.735
0.805
0.81
0.73
0.585
0.4
0.215
0.025
-0.085
-0.135
-0.18
-0.205
-0.22
-0.205
-0.19
-0.175
-0.195
-0.22
-0.245
-0.255
-0.245
-0.25
-0.245
-0.265
-0.275
-0.265
-0.27
-0.26
-0.27
-0.275
-0.28
-0.28
-0.265
-0.28
-0.285
-0.285
-0.29
-0.28
-0.265
-0.255
-0.265
-0.275
-0.265
-0.245
-0.235
-0.22
-0.205
-0.215
-0.22
-0.19
-0.195
-0.19
-0.195
-0.2
-0.215
-0.205
-0.2
-0.195
-0.195
-0.215
-0.23
-0.21
-0.2
-0.195
-0.19
-0.195
-0.205
-0.195
-0.19
-0.18
-0.18
-0.195
-0.195
-0.185
-0.175
-0.155
-0.165
-0.17
-0.18
-0.175
-0.165
-0.16
-0.16
-0.155
-0.16
-0.15
-0.14
-0.13
-0.13
-0.14
-0.135
-0.135
-0.12
-0.12
-0.12
-0.14
-0.16
-0.155
-0.15
-0.14
-0.145
-0.15
-0.16
-0.165
-0.16
-0.145
-0.15
-0.165
-0.18
-0.16
-0.16
-0.16
-0.17
-0.195
-0.205
-0.215
-0.195
-0.19
-0.19
-0.2
-0.21
-0.195
-0.195
-0.19
-0.2
-0.215
-0.225
-0.22
-0.22
-0.215
-0.23
-0.235
-0.245
-0.24
-0.235
-0.235
-0.225
-0.24
-0.24
-0.245
-0.24
-0.23
-0.225
-0.23
-0.235
-0.225
-0.215
-0.205
-0.215
-0.22
-0.23
-0.23
-0.225
-0.205
-0.21
-0.215
-0.225
-0.22
-0.215
-0.21
-0.215
-0.215
-0.225
-0.215
-0.205
-0.2
-0.2
-0.205
-0.21
-0.205
-0.205
-0.2
-0.215
-0.235
-0.24
-0.24
-0.235
-0.235
-0.245
-0.245
-0.25
-0.255
-0.26
-0.255
-0.255
-0.27
-0.275
-0.27
-0.275
-0.26
-0.265
-0.275
-0.28
-0.275
-0.27
-0.28
-0.275
-0.285
-0.29
-0.29
-0.28
-0.275
-0.265
-0.275
-0.275
-0.26
-0.26
-0.26
-0.26
-0.265
-0.27
-0.265
-0.265
-0.25
-0.255
-0.265
-0.265
-0.245
-0.22
-0.215
-0.215
-0.225
-0.235
-0.23
-0.21
-0.215
-0.23
-0.235
-0.22
-0.22
-0.22
-0.22
-0.225
-0.225
-0.24
-0.235
-0.23
-0.23
-0.235
-0.25
-0.255
-0.24
-0.24
-0.23
-0.245
-0.25
-0.26
-0.255
-0.245
-0.235
-0.255
-0.27
-0.27
-0.265
-0.265
-0.245
-0.25
-0.26
-0.27
-0.25
-0.245
-0.235
-0.245
-0.255
-0.275
-0.275
-0.27
-0.265
-0.255
-0.25
-0.27
-0.26
-0.24
-0.235
-0.245
-0.265
-0.27
-0.27
-0.255
-0.245
-0.245
-0.255
-0.27
-0.265
-0.25
-0.24
-0.23
-0.235
-0.24
-0.23
-0.23
-0.22
-0.22
-0.235
-0.245
-0.245
-0.235
-0.235
-0.225
-0.235
-0.245
-0.25
-0.225
-0.22
-0.225
-0.225
-0.225
-0.22
-0.21
-0.215
-0.22
-0.225
-0.225
-0.235
-0.225
-0.225
-0.225
-0.225
-0.235
-0.225
-0.23
-0.22
-0.23
-0.24
-0.24
-0.23
-0.225
-0.21
-0.205
-0.215
-0.225
-0.215
-0.21
-0.215
-0.22
-0.225
-0.23
-0.23
-0.225
-0.23
-0.22
-0.215
-0.23
-0.21
-0.205
-0.205
-0.195
-0.2
-0.205
-0.19
-0.185
-0.155
-0.14
-0.135
-0.135
-0.1
-0.035
0.05
0.15
0.255
0.35
0.485
0.61
0.715
0.805
0.885
0.96
0.97
0.92
0.795
0.59
0.375
0.165
0.005
-0.11
-0.18
-0.235
-0.275
-0.27
-0.24
-0.195
-0.16
-0.165
-0.175
-0.195
-0.205
-0.205
-0.21
-0.21
-0.235
-0.24
-0.235
-0.235
-0.23
-0.23
-0.24
-0.25
-0.245
-0.255
-0.245
-0.25
-0.24
-0.26
-0.245
-0.235
-0.235
-0.235
-0.23
-0.235
-0.23
-0.225
-0.21
-0.21
-0.215
-0.21
-0.225
-0.205
-0.195
-0.195
-0.205
-0.205
-0.205
-0.2
-0.2
-0.19
-0.195
-0.21
-0.205
-0.205
-0.2
-0.215
-0.215
-0.23
-0.215
-0.215
-0.21
-0.21
-0.215
-0.22
-0.2
-0.175
-0.17
-0.16
-0.155
-0.155
-0.15
-0.15
-0.135
-0.135
-0.14
-0.145
-0.135
-0.13
-0.125
-0.12
-0.14
-0.145
-0.13
-0.12
-0.1
-0.105
-0.1
-0.105
-0.1
-0.1
-0.085
-0.095
-0.1
-0.105
-0.1
-0.09
-0.1
-0.105
-0.125
-0.14
-0.125
-0.13
-0.13
-0.13
-0.15
-0.17
-0.16
-0.155
-0.155
-0.165
-0.17
-0.17
-0.17
-0.17
-0.17
-0.175
-0.175
-0.19
-0.17
-0.155
-0.155
-0.17
-0.185
-0.2
-0.205
-0.215
-0.21
-0.205
-0.21
-0.21
-0.2
-0.195
-0.19
-0.195
-0.19
-0.205
-0.2
-0.2
-0.195
-0.205
-0.2
-0.21
-0.195
-0.185
-0.18
-0.185
-0.19
-0.19
-0.19
-0.175
-0.17
-0.185
-0.19
-0.205
-0.185
-0.19
-0.185
-0.2
-0.205
-0.215
-0.21
-0.195
-0.19
-0.2
-0.215
-0.215
-0.22
-0.205
-0.2
-0.2
-0.21
-0.225
-0.21
-0.2
-0.195
-0.195
-0.215
-0.225
-0.23
-0.22
-0.215
-0.23
-0.24
-0.255
-0.24
-0.23
-0.215
-0.215
-0.24
-0.265
-0.265
-0.26
-0.26
-0.26
-0.26
-0.255
-0.25
-0.225
-0.205
-0.19
-0.195
-0.195
-0.185
-0.185
-0.175
-0.18
-0.18
-0.18
-0.185
-0.19
-0.18
-0.185
-0.19
-0.205
-0.2
-0.195
-0.19
-0.195
-0.2
-0.21
-0.205
-0.195
-0.2
-0.2
-0.19
-0.195
-0.195
-0.185
-0.18
-0.185
-0.185
-0.185
-0.185
-0.175
-0.165
-0.165
-0.155
-0.145
-0.135
-0.115
-0.08
-0.02
0.06
0.15
0.27
0.37
0.485
0.6
0.685
0.745
0.805
0.83
0.795
0.68
0.55
0.385
0.22
0.075
-0.02
-0.085
-0.135
-0.17
-0.19
-0.195
-0.19
-0.19
-0.195
-0.195
-0.185
-0.2
-0.195
-0.205
-0.225
-0.23
-0.225
-0.215
-0.22
-0.22
-0.24
-0.245
-0.245
-0.245
-0.245
-0.25
-0.245
-0.26
-0.26
-0.25
-0.25
-0.255
-0.255
-0.27
-0.25
-0.245
-0.25
-0.26
-0.27
-0.265
-0.245
-0.225
-0.22
-0.215
-0.22
-0.225
-0.215
-0.21
-0.195
-0.2
-0.205
-0.215
-0.205
-0.19
-0.19
-0.2
-0.21
-0.225
-0.205
-0.19
-0.185
-0.19
-0.205
-0.2
-0.19
-0.19
-0.185
-0.19
-0.195
-0.2
-0.2
-0.19
-0.175
-0.165
-0.16
-0.145
-0.13
-0.11
-0.105
-0.11
-0.11
-0.11
-0.11
-0.115
-0.12
-0.13
-0.135
-0.135
-0.14
-0.15
-0.145
-0.15
-0.16
-0.175
-0.17
-0.17
-0.17
-0.175
-0.19
-0.195
-0.19
-0.18
-0.18
-0.18
-0.195
-0.215
-0.21
-0.21
-0.21
-0.21
-0.23
-0.235
-0.23
-0.225
-0.225
-0.24
-0.25
-0.25
-0.24
-0.245
-0.235
-0.24
-0.24
-0.255
-0.25
-0.24
-0.235
-0.24
-0.255
-0.27
-0.265
-0.245
-0.265
-0.265
-0.29
-0.305
-0.305
-0.3
-0.295
-0.29
-0.29
-0.275
-0.25
-0.23
-0.235
-0.23
-0.24
-0.245
-0.245
-0.23
-0.225
-0.22
-0.225
-0.215
-0.215
-0.21
-0.215
-0.22
-0.23
-0.24
-0.245
-0.24
-0.235
-0.245
-0.255
-0.265
-0.255
-0.26
-0.255
-0.255
-0.265
-0.27
-0.26
-0.26
-0.26
-0.265
-0.28
-0.29
-0.285
-0.28
-0.275
-0.295
-0.29
-0.3
-0.285
-0.29
-0.29
-0.3
-0.305
-0.31
-0.31
-0.285
-0.29
-0.29
-0.305
-0.31
-0.3
-0.3
-0.3
-0.285
-0.295
-0.31
-0.3
-0.29
-0.27
-0.255
-0.25
-0.235
-0.215
-0.2
-0.21
-0.21
-0.215
-0.225
-0.22
-0.215
-0.205
-0.205
-0.205
-0.21
-0.2
-0.2
-0.2
-0.195
-0.21
-0.215
-0.205
-0.195
-0.185
-0.19
-0.2
-0.185
-0.17
-0.145
-0.13
-0.125
-0.105
-0.05
0.06
0.165
0.265
0.355
0.46
0.575
0.675
0.745
0.805
0.825
0.785
0.685
0.54
0.375
0.185
0.01
-0.105
-0.17
-0.195
-0.205
-0.21
-0.21
-0.205
-0.205
-0.215
-0.205
-0.205
-0.215
-0.235
-0.235
-0.245
-0.24
-0.245
-0.245
-0.27
-0.265
-0.26
-0.25
-0.235
-0.235
-0.23
-0.225
-0.22
-0.22
-0.21
-0.22
-0.225
-0.23
-0.225
-0.215
-0.215
-0.225
-0.225
-0.235
-0.23
-0.22
-0.225
-0.225
-0.23
-0.23
-0.225
-0.225
-0.215
-0.22
-0.235
-0.225
-0.225
-0.215
-0.205
-0.21
-0.205
-0.21
-0.205
-0.195
-0.195
-0.185
-0.2
-0.195
-0.175
-0.16
-0.16
-0.15
-0.165
-0.16
-0.165
-0.145
-0.145
-0.145
-0.145
-0.15
-0.125
-0.12
-0.12
-0.11
-0.115
-0.12
-0.11
-0.1
-0.11
-0.12
-0.12
-0.115
-0.115
-0.105
-0.105
-0.105
-0.11
-0.115
-0.12
-0.135
-0.125
-0.135
-0.155
-0.16
-0.17
-0.175
-0.165
-0.17
-0.175
-0.19
-0.19
-0.185
-0.19
-0.19
-0.195
-0.195
-0.195
-0.185
-0.185
-0.18
-0.2
-0.21
-0.205
-0.195
-0.19
-0.205
-0.21
-0.22
-0.22
-0.225
-0.205
-0.22
-0.235
-0.25
-0.23
-0.23
-0.22
-0.215
-0.225
-0.23
-0.23
-0.22
-0.215
-0.225
-0.225
-0.23
-0.22
-0.215
-0.215
-0.225
-0.225
-0.22
-0.21
-0.19
-0.19
-0.195
-0.21
-0.225
-0.215
-0.205
-0.2
-0.205
-0.225
-0.23
-0.22
-0.2
-0.2
-0.2
-0.215
-0.215
-0.205
-0.2
-0.21
-0.22
-0.225
-0.23
-0.24
-0.24
-0.25
-0.255
-0.275
-0.275
-0.285
-0.28
-0.28
-0.29
-0.295
-0.305
-0.31
-0.3
-0.29
-0.29
-0.285
-0.275
-0.26
-0.25
-0.22
-0.215
-0.215
-0.22
-0.215
-0.22
-0.205
-0.21
-0.215
-0.22
-0.21
-0.195
-0.18
-0.175
-0.175
-0.185
-0.175
-0.175
-0.165
-0.165
-0.175
-0.18
-0.175
-0.155
-0.15
-0.155
-0.17
-0.175
-0.16
-0.17
-0.17
-0.185
-0.19
-0.2
-0.19
-0.175
-0.17
-0.18
-0.18
-0.185
-0.175
-0.14
-0.115
-0.105
-0.065
0.035
0.18
0.315
0.445
0.585
0.71
0.825
0.925
0.985
0.945
0.795
0.585
0.35
0.125
-0.05
-0.175
-0.26
-0.31
-0.305
-0.255
-0.21
-0.2
-0.2
-0.205
-0.215
-0.215
-0.22
-0.22
-0.22
-0.23
-0.23
-0.225
-0.23
-0.225
-0.22
-0.23
-0.235
-0.23
-0.22
-0.22
-0.22
-0.235
-0.25
-0.245
-0.23
-0.23
-0.225
-0.245
-0.25
-0.235
-0.215
-0.21
-0.215
-0.225
-0.235
-0.23
-0.225
-0.225
-0.22
-0.23
-0.245
-0.23
-0.225
-0.215
-0.215
-0.225
-0.23
-0.225
-0.22
-0.21
-0.22
-0.22
-0.23
-0.215
-0.195
-0.2
-0.2
-0.185
-0.18
-0.175
-0.155
-0.14
-0.13
-0.115
-0.105
-0.08
-0.065
-0.05
-0.055
-0.05
-0.055
-0.045
-0.04
-0.03
-0.045
-0.05
-0.065
-0.065
-0.06
-0.065
-0.08
-0.1
-0.105
-0.1
-0.1
-0.1
-0.115
-0.135
-0.145
-0.15
-0.14
-0.145
-0.16
-0.18
-0.18
-0.165
-0.17
-0.185
-0.19
-0.21
-0.21
-0.21
-0.205
-0.205
-0.21
-0.235
-0.25
-0.25
-0.24
-0.24
-0.245
-0.24
-0.245
-0.23
-0.23
-0.225
-0.225
-0.235
-0.235
-0.21
-0.195
-0.185
-0.175
-0.175
-0.175
-0.17
-0.16
-0.175
-0.175
-0.175
-0.17
-0.17
-0.16
-0.155
-0.16
-0.175
-0.175
-0.165
-0.175
-0.18
-0.19
-0.185
-0.2
-0.195
-0.185
-0.185
-0.185
-0.2
-0.215
-0.205
-0.2
-0.2
-0.215
-0.22
-0.23
-0.235
-0.22
-0.225
-0.225
-0.245
-0.25
-0.25
-0.24
-0.24
-0.24
-0.27
-0.275
-0.265
-0.26
-0.245
-0.24
-0.245
-0.225
-0.2
-0.185
-0.17
-0.175
-0.195
-0.205
-0.19
-0.175
-0.16
-0.17
-0.18
-0.185
-0.18
-0.18
-0.185
-0.19
-0.195
-0.205
-0.195
-0.185
-0.195
-0.195
-0.2
-0.2
-0.2
-0.195
-0.2
-0.2
-0.22
-0.23
-0.225
-0.22
-0.22
-0.225
-0.235
-0.245
-0.235
-0.24
-0.23
-0.235
-0.245
-0.25
-0.25
-0.23
-0.22
-0.225
-0.23
-0.235
-0.215
-0.215
-0.21
-0.225
-0.24
-0.25
-0.245
-0.24
-0.225
-0.23
-0.24
-0.24
-0.24
-0.25
-0.235
-0.23
-0.23
-0.21
-0.18
-0.17
-0.15
-0.15
-0.17
-0.16
-0.135
-0.105
-0.085
-0.075
-0.055
-0.025
0.08
0.195
0.3
0.385
0.475
0.6
0.7
0.785
0.84
0.88
0.845
0.74
0.595
0.43
0.225
0.035
-0.085
-0.14
-0.17
-0.18
-0.18
-0.175
-0.17
-0.175
-0.16
-0.165
-0.165
-0.18
-0.185
-0.19
-0.205
-0.2
-0.205
-0.22
-0.23
-0.225
-0.23
-0.225
-0.225
-0.24
-0.245
-0.255
-0.25
-0.25
-0.255
-0.265
-0.27
-0.265
-0.255
-0.245
-0.24
-0.215
-0.21
-0.195
-0.185
-0.175
-0.165
-0.175
-0.185
-0.19
-0.185
-0.17
-0.175
-0.175
-0.175
-0.185
-0.175
-0.17
-0.17
-0.16
-0.165
-0.16
-0.15
-0.145
-0.15
-0.145
-0.155
-0.15
-0.145
-0.12
-0.115
-0.095
-0.1
-0.105
-0.095
-0.08
-0.08
-0.065
-0.08
-0.075
-0.075
-0.07
-0.065
-0.065
-0.075
-0.09
-0.105
-0.095
-0.1
-0.105
-0.12
-0.135
-0.145
-0.15
-0.15
-0.155
-0.175
-0.195
-0.2
-0.2
-0.185
-0.19
-0.195
-0.2
-0.195
-0.18
-0.185
-0.18
-0.19
-0.2
-0.2
-0.2
-0.2
-0.2
-0.215
-0.225
-0.23
-0.215
-0.215
-0.225
-0.23
-0.225
-0.215
-0.205
-0.2
-0.195
-0.21
-0.21
-0.205
-0.2
-0.195
-0.2
-0.205
-0.205
-0.19
-0.175
-0.175
-0.185
-0.19
-0.2
-0.205
-0.205
-0.195
-0.2
-0.21
-0.215
-0.21
-0.205
-0.205
-0.21
-0.235
-0.24
-0.235
-0.24
-0.235
-0.235
-0.235
-0.24
-0.23
-0.215
-0.21
-0.22
-0.235
-0.23
-0.225
-0.225
-0.22
-0.22
-0.225
-0.235
-0.225
-0.215
-0.215
-0.205
-0.225
-0.225
-0.22
-0.21
-0.205
-0.21
-0.225
-0.225
-0.22
-0.2
-0.195
-0.19
-0.21
-0.225
-0.205
-0.2
-0.2
-0.215
-0.22
-0.22
-0.215
-0.205
-0.215
-0.22
-0.225
-0.225
-0.215
-0.215
-0.215
-0.23
-0.24
-0.245
-0.255
-0.235
-0.24
-0.25
-0.275
-0.275
-0.28
-0.28
-0.28
-0.28
-0.27
-0.26
-0.24
-0.225
-0.235
-0.245
-0.26
-0.255
-0.25
-0.255
-0.24
-0.24
-0.25
-0.245
-0.23
-0.225
-0.22
-0.225
-0.24
-0.235
-0.22
-0.21
-0.21
-0.215
-0.215
-0.215
-0.195
-0.16
-0.14
-0.125
-0.11
-0.045
0.065
0.185
0.305
0.42
0.55
0.65
0.74
0.81
0.83
0.77
0.635
0.46
0.27
0.085
-0.05
-0.12
-0.16
-0.185
-0.185
-0.17
-0.165
-0.175
-0.19
-0.21
-0.205
-0.2
-0.195
-0.195
-0.22
-0.235
-0.245
-0.245
-0.235
-0.255
-0.26
-0.25
-0.245
-0.24
-0.235
-0.245
-0.26
-0.255
-0.245
-0.24
-0.24
-0.25
-0.25
-0.245
-0.23
-0.225
-0.235
-0.25
-0.24
-0.245
-0.235
-0.235
-0.25
-0.255
-0.245
-0.25
-0.235
-0.205
-0.19
-0.19
-0.195
-0.185
-0.17
-0.16
-0.155
-0.155
-0.185
-0.185
-0.17
-0.16
-0.15
-0.13
-0.125
-0.125
-0.11
-0.095
-0.08
-0.085
-0.08
-0.08
-0.075
-0.05
-0.045
-0.05
-0.055
-0.07
-0.075
-0.075
-0.09
-0.09
-0.105
-0.115
-0.12
-0.125
-0.13
-0.14
-0.155
-0.17
-0.185
-0.18
-0.185
-0.195
-0.21
-0.22
-0.225
-0.215
-0.215
-0.22
-0.22
-0.235
-0.225
-0.21
-0.2
-0.205
-0.215
-0.225
-0.21
-0.2
-0.2
-0.195
-0.21
-0.21
-0.21
-0.2
-0.205
-0.215
-0.22
-0.22
-0.22
-0.21
-0.2
-0.21
-0.205
-0.21
-0.19
-0.19
-0.18
-0.17
-0.185
-0.175
-0.185
-0.185
-0.18
-0.19
-0.2
-0.21
-0.205
-0.195
-0.195
-0.21
-0.23
-0.225
-0.23
-0.22
-0.22
-0.23
-0.235
-0.24
-0.23
-0.225
-0.205
-0.195
-0.195
-0.19
-0.15
-0.115
-0.07
-0.03
0.015
0.08
0.175
0.27
0.365
0.445
0.545
0.645
0.745
0.825
0.865
0.88
0.79
0.645
0.485
0.295
0.11
-0.06
-0.175
-0.22
-0.225
-0.225
-0.21
-0.19
-0.19
-0.185
-0.19
-0.2
-0.205
-0.225
-0.23
-0.245
-0.245
-0.25
-0.25
-0.245
-0.255
-0.27
-0.275
-0.275
-0.28
-0.28
-0.285
-0.3
-0.295
-0.29
-0.285
-0.285
-0.275
-0.285
-0.275
-0.27
-0.265
-0.26
-0.265
-0.265
-0.26
-0.255
-0.25
-0.255
-0.265
-0.26
-0.255
-0.245
-0.23
-0.235
-0.235
-0.225
-0.215
-0.21
-0.205
-0.21
-0.205
-0.19
-0.18
-0.165
-0.15
-0.135
-0.145
-0.15
-0.135
-0.13
-0.135
-0.135
-0.15
-0.14
-0.125
-0.12
-0.115
-0.105
-0.105
-0.1
-0.095
-0.1
-0.085
-0.1
-0.085
-0.1
-0.1
-0.115
-0.11
-0.115
-0.13
-0.15
-0.155
-0.16
-0.17
-0.18
-0.2
-0.21
-0.22
-0.22
-0.23
-0.25
-0.265
-0.27
-0.265
-0.26
-0.26
-0.265
-0.27
-0.28
-0.27
-0.26
-0.255
-0.255
-0.26
-0.265
-0.25
-0.24
-0.245
-0.24
-0.245
-0.25
-0.25
-0.255
-0.25
-0.26
-0.265
-0.27
-0.275
-0.26
-0.255
-0.265
-0.275
-0.275
-0.265
-0.26
-0.255
-0.26
-0.265
-0.275
-0.265
-0.26
-0.26
-0.255
-0.275
-0.27
-0.265
-0.265
-0.26
-0.27
-0.28
-0.28
-0.29
-0.28
-0.28
-0.28
-0.285
-0.285
-0.27
-0.255
-0.25
-0.255
-0.26
-0.275
-0.245
-0.245
-0.245
-0.24
-0.24
-0.24
-0.24
-0.23
-0.23
-0.235
-0.225
-0.23
-0.215
-0.215
-0.215
-0.22
-0.23
-0.24
-0.24
-0.245
-0.23
-0.245
-0.27
-0.265
-0.26
-0.26
-0.255
-0.26
-0.265
-0.27
-0.26
-0.265
-0.26
-0.255
-0.27
-0.27
-0.27
-0.27
-0.26
-0.265
-0.275
-0.275
-0.27
-0.265
-0.275
-0.28
-0.28
-0.29
-0.285
-0.275
-0.28
-0.28
-0.275
-0.285
-0.275
-0.27
-0.265
-0.285
-0.285
-0.29
-0.29
-0.28
-0.275
-0.26
-0.27
-0.26
-0.245
-0.24
-0.235
-0.24
-0.235
-0.22
-0.22
-0.205
-0.205
-0.22
-0.235
-0.245
-0.25
-0.25
-0.255
-0.25
-0.25
-0.235
-0.22
-0.22
-0.215
-0.23
-0.235
-0.255
-0.25
-0.24
-0.255
-0.265
-0.265
-0.275
-0.26
-0.26
-0.27
-0.27
-0.28
-0.27
-0.275
-0.28
-0.275
-0.275
-0.285
-0.28
-0.275
-0.265
-0.27
-0.265
-0.275
-0.28
-0.27
-0.265
-0.265
-0.28
-0.285
-0.29
-0.265
-0.255
-0.255
-0.255
-0.26
-0.245
-0.235
-0.23
-0.23
-0.24
-0.24
-0.24
-0.23
-0.22
-0.215
-0.21
-0.21
-0.22
-0.205
-0.195
-0.185
-0.175
-0.175
-0.155
-0.13
-0.12
-0.09
-0.08
-0.065
-0.03
0.045
0.15
0.245
0.335
0.44
0.56
0.67
0.75
0.82
0.885
0.93
0.91
0.83
0.705
0.54
0.355
0.16
0.01
-0.095
-0.17
-0.22
-0.24
-0.245
-0.22
-0.21
-0.215
-0.23
-0.255
-0.275
-0.265
-0.265
-0.255
-0.265
-0.265
-0.255
-0.26
-0.245
-0.24
-0.25
-0.25
-0.255
-0.26
-0.255
-0.245
-0.24
-0.245
-0.26
-0.245
-0.24
-0.235
-0.22
-0.215
-0.22
-0.22
-0.205
-0.195
-0.2
-0.205
-0.22
-0.225
-0.22
-0.225
-0.225
-0.23
-0.24
-0.25
-0.245
-0.235
-0.25
-0.25
-0.265
-0.27
-0.245
-0.23
-0.235
-0.24
-0.25
-0.255
-0.235
-0.24
-0.23
-0.24
-0.25
-0.24
-0.235
-0.21
-0.225
-0.225
-0.22
-0.21
-0.19
-0.17
-0.155
-0.145
-0.14
-0.13
-0.12
-0.1
-0.105
-0.1
-0.1
-0.105
-0.08
-0.06
-0.06
-0.055
-0.07
-0.065
-0.055
-0.04
-0.05
-0.055
-0.075
-0.09
-0.09
-0.1
-0.11
-0.135
-0.155
-0.175
-0.18
-0.185
-0.19
-0.19
-0.21
-0.22
-0.225
-0.215
-0.22
-0.235
-0.24
-0.245
-0.235
-0.225
-0.225
-0.22
-0.23
-0.235
-0.235
-0.215
-0.22
-0.22
-0.225
-0.245
-0.225
-0.225
-0.22
-0.215
-0.205
-0.21
-0.195
-0.17
-0.155
-0.155
-0.17
-0.17
-0.17
-0.165
-0.155
-0.16
-0.16
-0.18
-0.17
-0.165
-0.165
-0.175
-0.18
-0.19
-0.19
-0.195
-0.2
-0.21
-0.22
-0.235
-0.24
-0.235
-0.24
-0.25
-0.26
-0.275
-0.275
-0.27
-0.275
-0.285
-0.285
-0.3
-0.295
-0.29
-0.295
-0.29
-0.295
-0.295
-0.285
-0.275
-0.28
-0.28
-0.29
-0.3
-0.28
-0.265
-0.255
-0.24
-0.23
-0.21
-0.185
-0.15
-0.115
-0.065
0.015
0.105
0.185
0.255
0.335
0.45
0.56
0.65
0.72
0.775
0.76
0.685
0.55
0.365
0.195
0.085
0.03
-0.02
-0.055
-0.1
-0.11
-0.125
-0.13
-0.15
-0.18
-0.185
-0.19
-0.21
-0.215
-0.23
-0.245
-0.255
-0.255
-0.26
-0.27
-0.275
-0.29
-0.295
-0.295
-0.29
-0.295
-0.31
-0.33
-0.325
-0.32
-0.315
-0.31
-0.32
-0.32
-0.325
-0.315
-0.31
-0.305
-0.305
-0.325
-0.305
-0.29
-0.285
-0.28
-0.275
-0.29
-0.285
-0.26
-0.255
-0.24
-0.23
-0.225
-0.22
-0.2
-0.185
-0.18
-0.185
-0.195
-0.195
-0.185
-0.175
-0.17
-0.17
-0.165
-0.17
-0.16
-0.155
-0.155
-0.14
-0.145
-0.135
-0.12
-0.11
-0.125
-0.13
-0.145
-0.145
-0.14
-0.12
-0.125
-0.14
-0.155
-0.16
-0.155
-0.165
-0.17
-0.175
-0.19
-0.215
-0.205
-0.2
-0.21
-0.225
-0.23
-0.245
-0.235
-0.23
-0.24
-0.245
-0.25
-0.26
-0.24
-0.22
-0.225
-0.23
-0.245
-0.225
-0.22
-0.205
-0.2
-0.205
-0.215
-0.22
-0.215
-0.215
-0.195
-0.22
-0.22
-0.225
-0.215
-0.21
-0.22
-0.225
-0.235
-0.24
-0.23
-0.23
-0.235
-0.24
-0.25
-0.26
-0.26
-0.25
-0.265
-0.28
-0.285
-0.28
-0.275
-0.26
-0.255
-0.245
-0.245
-0.245
-0.225
-0.23
-0.225
-0.22
-0.225
-0.22
-0.205
-0.2
-0.195
-0.195
-0.2
-0.21
-0.2
-0.21
-0.215
-0.225
-0.24
-0.245
-0.225
-0.225
-0.22
-0.225
-0.23
-0.23
-0.23
-0.225
-0.23
-0.22
-0.235
-0.24
-0.245
-0.235
-0.25
-0.255
-0.26
-0.27
-0.26
-0.255
-0.255
-0.27
-0.285
-0.29
-0.295
-0.29
-0.295
-0.31
-0.325
-0.335
-0.32
-0.315
-0.33
-0.335
-0.345
-0.345
-0.345
-0.33
-0.335
-0.345
-0.35
-0.34
-0.315
-0.295
-0.275
-0.275
-0.275
-0.265
-0.255
-0.23
-0.225
-0.22
-0.22
-0.22
-0.2
-0.19
-0.18
-0.175
-0.175
-0.17
-0.155
-0.14
-0.13
-0.13
-0.12
-0.105
-0.095
-0.06
-0.025
0.05
0.135
0.22
0.32
0.44
0.565
0.66
0.73
0.81
0.87
0.87
0.765
0.605
0.425
0.24
0.055
-0.075
-0.145
-0.205
-0.26
-0.285
-0.265
-0.24
-0.225
-0.24
-0.265
-0.28
-0.275
-0.28
-0.265
-0.275
-0.28
-0.275
-0.265
-0.255
-0.25
-0.26
-0.265
-0.26
-0.26
-0.245
-0.24
-0.235
-0.23
-0.23
-0.225
-0.215
-0.205
-0.205
-0.215
-0.215
-0.21
-0.205
-0.2
-0.21
-0.21
-0.2
-0.2
-0.19
-0.19
-0.195
-0.205
-0.22
-0.225
-0.225
-0.215
-0.23
-0.23
-0.235
-0.225
-0.21
-0.215
-0.215
-0.225
-0.23
-0.215
-0.2
-0.195
-0.205
-0.21
-0.22
-0.19
-0.19
-0.19
-0.2
-0.2
-0.185
-0.185
-0.16
-0.155
-0.16
-0.165
-0.17
-0.16
-0.15
-0.135
-0.12
-0.125
-0.115
-0.1
-0.075
-0.065
-0.07
-0.08
-0.08
-0.075
-0.075
-0.08
-0.08
-0.095
-0.105
-0.115
-0.12
-0.13
-0.14
-0.15
-0.165
-0.17
-0.16
-0.165
-0.17
-0.175
-0.185
-0.185
-0.17
-0.17
-0.185
-0.195
-0.205
-0.2
-0.2
-0.2
-0.21
-0.22
-0.22
-0.215
-0.205
-0.2
-0.205
-0.21
-0.225
-0.205
-0.205
-0.19
-0.2
-0.21
-0.205
-0.2
-0.2
-0.2
-0.195
-0.2
-0.21
-0.205
-0.195
-0.2
-0.205
-0.21
-0.23
-0.23
-0.215
-0.21
-0.215
-0.22
-0.21
-0.195
-0.18
-0.175
-0.18
-0.19
-0.19
-0.175
-0.165
-0.17
-0.175
-0.175
-0.19
-0.18
-0.175
-0.18
-0.19
-0.2
-0.205
-0.2
-0.19
-0.185
-0.19
-0.195
-0.2
-0.205
-0.195
-0.195
-0.195
-0.2
-0.205
-0.18
-0.17
-0.145
-0.13
-0.115
-0.1
-0.05
0.02
0.115
0.225
0.315
0.42
0.54
0.675
0.76
0.835
0.87
0.835
0.735
0.58
0.39
0.175
0.005
-0.105
-0.18
-0.225
-0.25
-0.24
-0.21
-0.185
-0.18
-0.2
-0.21
-0.23
-0.25
-0.275
-0.28
-0.275
-0.27
-0.27
-0.27
-0.265
-0.255
-0.255
-0.25
-0.245
-0.26
-0.275
-0.26
-0.245
-0.245
-0.25
-0.25
-0.26
-0.26
-0.25
-0.25
-0.255
-0.265
-0.265
-0.255
-0.24
-0.235
-0.24
-0.255
-0.235
-0.225
-0.215
-0.21
-0.22
-0.22
-0.22
-0.205
-0.195
-0.2
-0.195
-0.2
-0.2
-0.185
-0.175
-0.18
-0.175
-0.175
-0.185
-0.165
-0.145
-0.13
-0.14
-0.14
-0.15
-0.15
-0.135
-0.135
-0.135
-0.145
-0.15
-0.135
-0.125
-0.12
-0.125
-0.13
-0.14
-0.135
-0.13
-0.115
-0.125
-0.135
-0.135
-0.115
-0.11
-0.1
-0.11
-0.12
-0.135
-0.14
-0.13
-0.135
-0.145
-0.15
-0.16
-0.16
-0.15
-0.16
-0.155
-0.195
-0.205
-0.19
-0.185
-0.185
-0.2
-0.225
-0.22
-0.21
-0.2
-0.2
-0.205
-0.215
-0.225
-0.22
-0.205
-0.195
-0.185
-0.185
-0.19
-0.175
-0.17
-0.185
-0.195
-0.205
-0.215
-0.2
-0.2
-0.19
-0.205
-0.22
-0.215
-0.21
-0.205
-0.205
-0.205
-0.22
-0.22
-0.22
-0.21
-0.22
-0.23
-0.25
-0.26
-0.26
-0.24
-0.23
-0.225
-0.215
-0.205
-0.185
-0.165
-0.165
-0.185
-0.195
-0.18
-0.18
-0.175
-0.17
-0.19
-0.19
-0.195
-0.185
-0.18
-0.185
-0.195
-0.21
-0.21
-0.19
-0.19
-0.185
-0.185
-0.205
-0.21
-0.2
-0.185
-0.185
-0.18
-0.2
-0.195
-0.2
-0.195
-0.195
-0.21
-0.215
-0.225
-0.215
-0.21
-0.21
-0.215
-0.245
-0.24
-0.23
-0.21
-0.22
-0.24
-0.235
-0.245
-0.235
-0.225
-0.23
-0.225
-0.24
-0.245
-0.235
-0.23
-0.23
-0.245
-0.24
-0.245
-0.23
-0.22
-0.215
-0.195
-0.185
-0.155
-0.125
-0.065
0.015
0.12
0.225
0.325
0.43
0.555
0.68
0.76
0.81
0.875
0.915
0.885
0.775
0.63
0.475
0.285
0.125
0.03
-0.025
-0.09
-0.13
-0.13
-0.125
-0.115
-0.115
-0.135
-0.16
-0.175
-0.195
-0.2
-0.21
-0.215
-0.24
-0.245
-0.23
-0.22
-0.23
-0.24
-0.235
-0.255
-0.25
-0.255
-0.26
-0.27
-0.275
-0.285
-0.285
-0.28
-0.275
-0.27
-0.285
-0.285
-0.295
-0.285
-0.285
-0.295
-0.3
-0.295
-0.285
-0.275
-0.275
-0.275
-0.28
-0.275
-0.25
-0.23
-0.205
-0.175
-0.165
-0.15
-0.135
-0.125
-0.125
-0.13
-0.14
-0.145
-0.145
-0.13
-0.135
-0.135
-0.15
-0.155
-0.145
-0.13
-0.14
-0.145
-0.14
-0.145
-0.145
-0.125
-0.12
-0.125
-0.14
-0.135
-0.115
-0.12
-0.12
-0.11
-0.115
-0.12
-0.115
-0.115
-0.12
-0.125
-0.13
-0.15
-0.165
-0.15
-0.165
-0.17
-0.19
-0.2
-0.205
-0.195
-0.21
-0.22
-0.225
-0.215
-0.215
-0.2
-0.205
-0.215
-0.225
-0.235
-0.22
-0.225
-0.22
-0.205
-0.19
-0.175
-0.135
-0.115
-0.115
-0.12
-0.135
-0.15
-0.145
-0.14
-0.145
-0.15
-0.16
-0.165
-0.16
-0.155
-0.15
-0.17
-0.165
-0.175
-0.165
-0.165
-0.175
-0.165
-0.185
-0.2
-0.195
-0.185
-0.185
-0.2
-0.2
-0.215
-0.21
-0.19
-0.195
-0.205
-0.22
-0.23
-0.23
-0.215
-0.225
-0.23
-0.245
-0.24
-0.235
-0.23
-0.24
-0.25
-0.25
-0.25
-0.235
-0.23
-0.24
-0.245
-0.245
-0.255
-0.25
-0.235
-0.235
-0.24
-0.25
-0.25
-0.235
-0.215
-0.19
-0.18
-0.17
-0.17
-0.175
-0.17
-0.17
-0.17
-0.19
-0.19
-0.18
-0.19
-0.19
-0.185
-0.2
-0.2
-0.2
-0.2
-0.205
-0.215
-0.22
-0.23
-0.215
-0.21
-0.205
-0.21
-0.22
-0.22
-0.22
-0.215
-0.21
-0.215
-0.22
-0.225
-0.215
-0.22
-0.215
-0.22
-0.22
-0.21
-0.18
-0.155
-0.135
-0.13
-0.115
-0.095
-0.02
0.075
0.16
0.245
0.335
0.445
0.58
0.68
0.73
0.77
0.815
0.785
0.705
0.6
0.435
0.24
0.075
-0.04
-0.09
-0.11
-0.125
-0.14
-0.145
-0.135
-0.115
-0.125
-0.15
-0.175
-0.19
-0.205
-0.205
-0.195
-0.21
-0.21
-0.235
-0.24
-0.24
-0.235
-0.25
-0.255
-0.265
-0.27
-0.26
-0.26
-0.255
-0.28
-0.28
-0.265
-0.26
-0.245
-0.25
-0.245
-0.23
-0.225
-0.215
-0.2
-0.21
-0.215
-0.22
-0.225
-0.215
-0.21
-0.205
-0.215
-0.215
-0.225
-0.22
-0.2
-0.21
-0.225
-0.21
-0.225
-0.215
-0.215
-0.21
-0.21
-0.225
-0.225
-0.215
-0.21
-0.215
-0.2
-0.205
-0.19
-0.175
-0.155
-0.125
-0.125
-0.135
-0.145
-0.12
-0.095
-0.1
-0.095
-0.105
-0.1
-0.1
-0.095
-0.085
-0.09
-0.095
-0.095
-0.09
-0.08
-0.09
-0.1
-0.12
-0.14
-0.13
-0.125
-0.125
-0.14
-0.16
-0.175
-0.175
-0.16
-0.175
-0.17
-0.19
-0.2
-0.19
-0.185
-0.205
-0.205
-0.225
-0.23
-0.22
-0.215
-0.22
-0.23
-0.235
-0.245
-0.235
-0.24
-0.255
-0.265
-0.265
-0.275
-0.27
-0.265
-0.265
-0.275
-0.28
-0.28
-0.27
-0.26
-0.265
-0.27
-0.265
-0.255
-0.235
-0.2
-0.18
-0.17
-0.165
-0.165
-0.145
-0.15
-0.145
-0.145
-0.155
-0.155
-0.15
-0.145
-0.15
-0.16
-0.165
-0.175
-0.17
-0.17
-0.18
-0.19
-0.2
-0.195
-0.195
-0.19
-0.2
-0.2
-0.21
-0.225
-0.23
-0.215
-0.235
-0.22
-0.23
-0.235
-0.235
-0.23
-0.24
-0.24
-0.25
-0.255
-0.255
-0.25
-0.25
-0.26
-0.265
-0.275
-0.265
-0.255
-0.26
-0.265
-0.27
-0.285
-0.27
-0.26
-0.26
-0.26
-0.255
-0.255
-0.235
-0.2
-0.18
-0.165
-0.16
-0.155
-0.15
-0.155
-0.155
-0.165
-0.17
-0.185
-0.175
-0.165
-0.165
-0.175
-0.185
-0.195
-0.185
-0.18
-0.195
-0.195
-0.215
-0.215
-0.205
-0.2
-0.205
-0.225
-0.235
-0.23
-0.225
-0.225
-0.22
-0.23
-0.245
-0.25
-0.235
-0.23
-0.235
-0.245
-0.25
-0.25
-0.24
-0.23
-0.23
-0.235
-0.26
-0.25
-0.24
-0.24
-0.25
-0.245
-0.245
-0.24
-0.22
-0.21
-0.21
-0.205
-0.2
-0.19
-0.18
-0.16
-0.155
-0.16
-0.145
-0.145
-0.135
-0.145
-0.15
-0.165
-0.17
-0.17
-0.165
-0.155
-0.165
-0.165
-0.175
-0.175
-0.155
-0.13
-0.11
-0.1
-0.085
-0.08
-0.02
0.05
0.16
0.28
0.375
0.5
0.625
0.745
0.83
0.91
0.945
0.905
0.78
0.585
0.345
0.1
-0.075
-0.195
-0.25
-0.28
-0.305
-0.285
-0.245
-0.225
-0.21
-0.205
-0.215
-0.21
-0.215
-0.215
-0.215
-0.21
-0.215
-0.23
-0.22
-0.205
-0.21
-0.205
-0.2
-0.2
-0.205
-0.2
-0.19
-0.17
-0.17
-0.175
-0.18
-0.195
-0.18
-0.175
-0.185
-0.195
-0.2
-0.205
-0.2
-0.19
-0.195
-0.19
-0.195
-0.215
-0.21
-0.2
-0.195
-0.195
-0.2
-0.215
-0.195
-0.19
-0.185
-0.19
-0.2
-0.195
-0.19
-0.185
-0.18
-0.185
-0.18
-0.185
-0.175
-0.175
-0.165
-0.17
-0.16
-0.155
-0.125
-0.11
-0.11
-0.105
-0.1
-0.095
-0.085
-0.07
-0.08
-0.085
-0.08
-0.075
-0.045
-0.03
-0.005
-0.02
-0.04
-0.04
-0.04
-0.03
-0.03
-0.04
-0.055
-0.075
-0.075
-0.075
-0.09
-0.11
-0.125
-0.135
-0.14
-0.14
-0.15
-0.17
-0.185
-0.185
-0.185
-0.19
-0.2
-0.215
-0.22
-0.23
-0.22
-0.215
-0.23
-0.23
-0.24
-0.235
-0.215
-0.205
-0.205
-0.2
-0.21
-0.21
-0.2
-0.19
-0.18
-0.18
-0.18
-0.18
-0.16
-0.15
-0.155
-0.16
-0.17
-0.175
-0.16
-0.15
-0.155
-0.16
-0.16
-0.165
-0.165
-0.155
-0.175
-0.18
-0.185
-0.185
-0.175
-0.165
-0.16
-0.165
-0.185
-0.195
-0.195
-0.19
-0.195
-0.195
-0.215
-0.22
-0.21
-0.215
-0.22
-0.235
-0.255
-0.26
-0.26
-0.24
-0.25
-0.245
-0.25
-0.24
-0.225
-0.21
-0.22
-0.215
-0.225
-0.21
-0.195
-0.185
-0.195
-0.195
-0.21
-0.205
-0.2
-0.19
-0.2
-0.2
-0.21
-0.2
-0.195
-0.19
-0.205
-0.205
-0.215
-0.215
-0.21
-0.2
-0.205
-0.215
-0.225
-0.225
-0.215
-0.22
-0.215
-0.22
-0.22
-0.215
-0.205
-0.195
-0.2
-0.205
-0.215
-0.225
-0.215
-0.2
-0.205
-0.21
-0.215
-0.22
-0.22
-0.215
-0.225
-0.22
-0.24
-0.235
-0.22
-0.215
-0.22
-0.23
-0.235
-0.23
-0.205
-0.185
-0.185
-0.175
-0.19
-0.19
-0.185
-0.175
-0.195
-0.2
-0.205
-0.205
-0.195
-0.185
-0.205
-0.205
-0.22
-0.22
-0.21
-0.21
-0.205
-0.21
-0.21
-0.21
-0.195
-0.185
-0.185
-0.19
-0.2
-0.21
-0.2
-0.19
-0.205
-0.21
-0.225
-0.225
-0.215
-0.22
-0.225
-0.23
-0.235
-0.23
-0.22
-0.22
-0.235
-0.24
-0.235
-0.23
-0.22
-0.205
-0.21
-0.22
-0.215
-0.21
-0.18
-0.165
-0.16
-0.155
-0.15
-0.145
-0.145
-0.14
-0.15
-0.155
-0.165
-0.17
-0.155
-0.15
-0.15
-0.15
-0.15
-0.145
-0.135
-0.135
-0.135
-0.135
-0.13
-0.115
-0.09
-0.07
-0.055
-0.05
-0.005
0.07
0.18
0.285
0.38
0.5
0.615
0.71
0.8
0.885
0.945
0.925
0.82
0.655
0.47
0.275
0.09
-0.06
-0.15
-0.2
-0.22
-0.185
-0.145
-0.12
-0.12
-0.14
-0.145
-0.16
-0.165
-0.18
-0.195
-0.185
-0.185
-0.18
-0.18
-0.18
-0.2
-0.185
-0.185
-0.165
-0.165
-0.175
-0.165
-0.165
-0.155
-0.14
-0.15
-0.15
-0.16
-0.16
-0.16
-0.16
-0.16
-0.16
-0.175
-0.185
-0.185
-0.175
-0.165
-0.175
-0.185
-0.18
-0.175
-0.165
-0.165
-0.17
-0.185
-0.17
-0.16
-0.16
-0.16
-0.16
-0.17
-0.175
-0.17
-0.16
-0.155
-0.155
-0.16
-0.15
-0.14
-0.12
-0.11
-0.11
-0.105
-0.105
-0.085
-0.075
-0.08
-0.08
-0.085
-0.085
-0.075
-0.07
-0.065
-0.08
-0.09
-0.08
-0.075
-0.055
-0.06
-0.07
-0.085
-0.075
-0.07
-0.07
-0.075
-0.095
-0.1
-0.12
-0.13
-0.13
-0.135
-0.16
-0.16
-0.175
-0.18
-0.165
-0.175
-0.175
-0.185
-0.21
-0.21
-0.195
-0.19
-0.195
-0.205
-0.195
-0.195
-0.17
-0.165
-0.17
-0.175
-0.175
-0.15
-0.14
-0.135
-0.135
-0.14
-0.135
-0.13
-0.12
-0.12
-0.125
-0.125
-0.125
-0.125
-0.11
-0.125
-0.15
-0.17
-0.165
-0.165
-0.16
-0.165
-0.175
-0.18
-0.175
-0.18
-0.17
-0.18
-0.185
-0.19
-0.19
-0.18
-0.175
-0.185
-0.185
-0.205
-0.195
-0.2
-0.2
-0.21
-0.215
-0.225
-0.22
-0.215
-0.21
-0.225
-0.23
-0.24
-0.24
-0.22
-0.21
-0.215
-0.22
-0.22
-0.19
-0.17
-0.165
-0.155
-0.165
-0.165
-0.16
-0.16
-0.15
-0.165
-0.165
-0.165
-0.155
-0.14
-0.145
-0.155
-0.18
-0.19
-0.19
-0.19
-0.19
-0.195
-0.205
-0.215
-0.205
-0.19
-0.19
-0.2
-0.21
-0.21
-0.21
-0.205
-0.21
-0.215
-0.22
-0.24
-0.23
-0.23
-0.22
-0.22
-0.23
-0.235
-0.23
-0.235
-0.225
-0.235
-0.23
-0.235
-0.225
-0.215
-0.205
-0.21
-0.215
-0.215
-0.21
-0.195
-0.185
-0.17
-0.165
-0.155
-0.125
-0.09
-0.055
0.005
0.065
0.16
0.265
0.355
0.45
0.56
0.68
0.765
0.83
0.89
0.91
0.835
0.7
0.545
0.355
0.185
0.06
-0.02
-0.08
-0.1
-0.12
-0.11
-0.105
-0.11
-0.135
-0.16
-0.17
-0.18
-0.185
-0.2
-0.21
-0.22
-0.225
-0.22
-0.215
-0.22
-0.235
-0.25
-0.245
-0.24
-0.245
-0.245
-0.255
-0.275
-0.275
-0.26
-0.25
-0.245
-0.245
-0.255
-0.25
-0.235
-0.225
-0.235
-0.24
-0.235
-0.22
-0.2
-0.18
-0.165
-0.16
-0.165
-0.16
-0.155
-0.14
-0.135
-0.14
-0.15
-0.155
-0.14
-0.13
-0.14
-0.145
-0.15
-0.135
-0.13
-0.115
-0.105
-0.115
-0.13
-0.135
-0.13
-0.12
-0.12
-0.12
-0.125
-0.13
-0.12
-0.11
-0.105
-0.12
-0.135
-0.145
-0.125
-0.11
-0.11
-0.125
-0.135
-0.135
-0.13
-0.11
-0.11
-0.12
-0.12
-0.115
-0.105
-0.105
-0.115
-0.105
-0.12
-0.12
-0.125
-0.125
-0.13
-0.13
-0.14
-0.13
-0.135
-0.12
-0.125
-0.14
-0.155
-0.155
-0.145
-0.15
-0.15
-0.16
-0.17
-0.16
-0.16
-0.16
-0.165
-0.185
-0.2
-0.2
-0.2
-0.195
-0.195
-0.2
-0.22
-0.225
-0.22
-0.215
-0.215
-0.235
-0.235
-0.24
-0.235
-0.23
-0.235
-0.245
-0.255
-0.265
-0.265
-0.245
-0.26
-0.255
-0.265
-0.255
-0.245
-0.245
-0.24
-0.24
-0.245
-0.235
-0.225
-0.225
-0.215
-0.21
-0.22
-0.2
-0.2
-0.19
-0.195
-0.195
-0.195
-0.17
-0.16
-0.155
-0.165
-0.175
-0.18
-0.185
-0.165
-0.16
-0.165
-0.17
-0.195
-0.19
-0.18
-0.175
-0.175
-0.18
-0.195
-0.205
-0.19
-0.19
-0.21
-0.225
-0.23
-0.235
-0.225
-0.21
-0.21
-0.22
-0.24
-0.21
-0.21
-0.2
-0.195
-0.2
-0.205
-0.19
-0.18
-0.16
-0.155
-0.15
-0.145
-0.115
-0.1
-0.055
0.02
0.105
0.185
0.265
0.38
0.51
0.62
0.7
0.785
0.855
0.875
0.78
0.625
0.425
0.215
0.025
-0.095
-0.145
-0.17
-0.18
-0.175
-0.145
-0.135
-0.14
-0.165
-0.18
-0.195
-0.205
-0.21
-0.215
-0.225
-0.24
-0.25
-0.25
-0.25
-0.25
-0.25
-0.255
-0.265
-0.26
-0.245
-0.24
-0.235
-0.24
-0.245
-0.23
-0.23
-0.215
-0.19
-0.195
-0.21
-0.195
-0.195
-0.195
-0.2
-0.2
-0.21
-0.2
-0.195
-0.19
-0.195
-0.205
-0.2
-0.2
-0.205
-0.2
-0.185
-0.2
-0.2
-0.2
-0.19
-0.19
-0.185
-0.19
-0.195
-0.18
-0.155
-0.135
-0.12
-0.12
-0.12
-0.115
-0.095
-0.075
-0.065
-0.075
-0.065
-0.07
-0.06
-0.035
-0.04
-0.03
-0.035
-0.03
-0.03
-0.025
-0.04
-0.05
-0.07
-0.07
-0.075
-0.08
-0.09
-0.11
-0.135
-0.14
-0.145
-0.16
-0.16
-0.185
-0.2
-0.2
-0.2
-0.205
-0.205
-0.22
-0.235
-0.235
-0.23
-0.235
-0.23
-0.25
-0.265
-0.265
-0.26
-0.26
-0.255
-0.27
-0.28
-0.27
-0.275
-0.27
-0.285
-0.28
-0.29
-0.28
-0.26
-0.235
-0.23
-0.235
-0.23
-0.22
-0.2
-0.19
-0.195
-0.205
-0.205
-0.19
-0.18
-0.175
-0.175
-0.185
-0.2
-0.195
-0.18
-0.18
-0.175
-0.185
-0.19
-0.175
-0.165
-0.165
-0.185
-0.195
-0.2
-0.19
-0.19
-0.185
-0.19
-0.19
-0.215
-0.21
-0.21
-0.2
-0.205
-0.22
-0.235
-0.23
-0.24
-0.25
-0.255
-0.26
-0.275
-0.275
-0.26
-0.255
-0.26
-0.26
-0.26
-0.275
-0.265
-0.25
-0.245
-0.245
-0.25
-0.24
-0.225
-0.22
-0.225
-0.23
-0.24
-0.225
-0.225
-0.225
-0.23
-0.235
-0.24
-0.245
-0.23
-0.22
-0.225
-0.225
-0.235
-0.225
-0.21
-0.21
-0.205
-0.215
-0.21
-0.215
-0.2
-0.2
-0.185
-0.19
-0.205
-0.205
-0.2
-0.195
-0.195
-0.2
-0.22
-0.225
-0.22
-0.22
-0.235
-0.245
-0.265
-0.265
-0.255
-0.255
-0.26
-0.265
-0.275
-0.265
-0.26
-0.26
-0.26
-0.27
-0.27
-0.265
-0.26
-0.255
-0.26
-0.275
-0.285
-0.28
-0.275
-0.27
-0.265
-0.27
-0.27
-0.265
-0.255
-0.25
-0.255
-0.265
-0.28
-0.255
-0.25
-0.24
-0.24
-0.26
-0.26
-0.245
-0.24
-0.23
-0.225
-0.235
-0.245
-0.24
-0.235
-0.215
-0.215
-0.225
-0.23
-0.21
-0.21
-0.21
-0.205
-0.22
-0.225
-0.225
-0.21
-0.215
-0.21
-0.22
-0.23
-0.225
-0.215
-0.205
-0.21
-0.215
-0.225
-0.22
-0.225
-0.215
-0.215
-0.225
-0.24
-0.235
-0.23
-0.215
-0.225
-0.23
-0.23
-0.225
-0.21
-0.2
-0.195
-0.19
-0.19
-0.17
-0.15
-0.12
-0.095
-0.085
-0.055
0.01
0.115
0.225
0.33
0.44
0.565
0.705
0.805
0.905
0.99
1.015
0.945
0.81
0.63
0.435
0.235
0.07
-0.035
-0.1
-0.14
-0.155
-0.13
-0.11
-0.1
-0.105
-0.115
-0.13
-0.14
-0.175
-0.195
-0.2
-0.21
-0.21
-0.22
-0.22
-0.23
-0.235
-0.235
-0.225
-0.25
-0.265
-0.26
-0.255
-0.26
-0.255
-0.255
-0.265
-0.26
-0.245
-0.23
-0.21
-0.21
-0.215
-0.215
-0.215
-0.215
-0.21
-0.2
-0.205
-0.205
-0.185
-0.185
-0.165
-0.16
-0.165
-0.18
-0.175
-0.155
-0.135
-0.14
-0.15
-0.16
-0.155
-0.14
-0.14
-0.145
-0.14
-0.15
-0.14
-0.13
-0.125
-0.13
-0.155
-0.16
-0.15
-0.14
-0.13
-0.12
-0.12
-0.12
-0.115
-0.11
-0.105
-0.11
-0.11
-0.12
-0.115
-0.105
-0.095
-0.085
-0.1
-0.105
-0.105
-0.095
-0.085
-0.085
-0.09
-0.11
-0.1
-0.095
-0.075
-0.075
-0.08
-0.095
-0.09
-0.09
-0.075
-0.075
-0.095
-0.105
-0.11
-0.11
-0.11
-0.11
-0.125
-0.135
-0.135
-0.125
-0.14
-0.14
-0.15
-0.165
-0.165
-0.155
-0.145
-0.145
-0.15
-0.165
-0.165
-0.17
-0.155
-0.15
-0.16
-0.18
-0.17
-0.165
-0.165
-0.155
-0.165
-0.17
-0.16
-0.16
-0.15
-0.145
-0.155
-0.165
-0.15
-0.165
-0.15
-0.155
-0.16
-0.165
-0.165
-0.17
-0.165
-0.17
-0.19
-0.18
-0.18
-0.16
-0.16
-0.165
-0.185
-0.195
-0.18
-0.18
-0.185
-0.18
-0.175
-0.18
-0.155
-0.135
-0.13
-0.14
-0.145
-0.155
-0.155
-0.155
-0.15
-0.16
-0.16
-0.165
-0.17
-0.155
-0.15
-0.16
-0.165
-0.175
-0.185
-0.18
-0.18
-0.17
-0.18
-0.19
-0.195
-0.185
-0.175
-0.185
-0.205
-0.215
-0.2
-0.195
-0.18
-0.18
-0.18
-0.2
-0.2
-0.19
-0.19
-0.18
-0.195
-0.205
-0.205
-0.195
-0.19
-0.185
-0.19
-0.21
-0.21
-0.19
-0.18
-0.185
-0.205
-0.21
-0.215
-0.215
-0.205
-0.21
-0.22
-0.225
-0.21
-0.205
-0.195
-0.18
-0.185
-0.185
-0.17
-0.175
-0.17
-0.175
-0.17
-0.185
-0.175
-0.175
-0.17
-0.165
-0.175
-0.175
-0.165
-0.155
-0.13
-0.13
-0.115
-0.12
-0.095
-0.05
0.015
0.11
0.205
0.285
0.39
0.515
0.63
0.73
0.78
0.835
0.885
0.88
0.805
0.68
0.52
0.35
0.165
0.035
-0.04
-0.09
-0.135
-0.17
-0.165
-0.155
-0.14
-0.145
-0.16
-0.19
-0.19
-0.195
-0.2
-0.195
-0.22
-0.225
-0.215
-0.21
-0.2
-0.2
-0.215
-0.21
-0.215
-0.21
-0.195
-0.2
-0.21
-0.225
-0.215
-0.21
-0.19
-0.195
-0.21
-0.225
-0.215
-0.195
-0.19
-0.185
-0.19
-0.19
-0.19
-0.18
-0.175
-0.18
-0.185
-0.2
-0.205
-0.19
-0.175
-0.175
-0.18
-0.185
-0.2
-0.175
-0.17
-0.165
-0.175
-0.175
-0.165
-0.155
-0.145
-0.13
-0.135
-0.15
-0.145
-0.135
-0.11
-0.11
-0.11
-0.11
-0.12
-0.105
-0.095
-0.085
-0.085
-0.09
-0.085
-0.08
-0.09
-0.085
-0.095
-0.1
-0.1
-0.1
-0.08
-0.085
-0.08
-0.095
-0.09
-0.09
-0.08
-0.09
-0.105
-0.115
-0.125
-0.12
-0.105
-0.115
-0.125
-0.15
-0.14
-0.14
-0.135
-0.145
-0.155
-0.165
-0.17
-0.16
-0.155
-0.155
-0.17
-0.17
-0.17
-0.17
-0.155
-0.15
-0.17
-0.165
-0.165
-0.155
-0.16
-0.16
-0.16
-0.18
-0.175
-0.175
-0.165
-0.165
-0.175
-0.19
-0.19
-0.175
-0.175
-0.18
-0.185
-0.19
-0.19
-0.185
-0.185
-0.19
-0.21
-0.22
-0.215
-0.205
-0.195
-0.2
-0.21
-0.22
-0.2
-0.185
-0.175
-0.175
-0.175
-0.17
-0.17
-0.16
-0.15
-0.165
-0.17
-0.185
-0.175
-0.16
-0.15
-0.165
-0.175
-0.18
-0.17
-0.165
-0.17
-0.16
-0.165
-0.185
-0.18
-0.165
-0.165
-0.165
-0.165
-0.17
-0.155
-0.15
-0.145
-0.155
-0.16
-0.165
-0.165
-0.165
-0.165
-0.18
-0.19
-0.215
-0.195
-0.195
-0.195
-0.195
-0.215
-0.22
-0.21
-0.2
-0.205
-0.215
-0.215
-0.23
-0.225
-0.225
-0.225
-0.22
-0.22
-0.22
-0.215
-0.195
-0.185
-0.19
-0.18
-0.19
-0.18
-0.175
-0.17
-0.17
-0.175
-0.19
-0.18
-0.175
-0.17
-0.175
-0.18
-0.175
-0.165
-0.15
-0.125
-0.115
-0.1
-0.095
-0.07
-0.01
0.08
0.195
0.31
0.405
0.54
0.685
0.8
0.89
0.95
0.97
0.905
0.765
0.59
0.375
0.17
-0.005
-0.11
-0.18
-0.205
-0.22
-0.205
-0.19
-0.18
-0.19
-0.195
-0.205
-0.215
-0.23
-0.225
-0.23
-0.22
-0.23
-0.235
-0.245
-0.235
-0.225
-0.225
-0.225
-0.23
-0.235
-0.235
-0.22
-0.21
-0.215
-0.22
-0.23
-0.21
-0.195
-0.185
-0.17
-0.175
-0.185
-0.18
-0.16
-0.155
-0.15
-0.15
-0.165
-0.165
-0.155
-0.155
-0.15
-0.16
-0.165
-0.155
-0.14
-0.135
-0.145
-0.145
-0.15
-0.13
-0.13
-0.12
-0.12
-0.12
-0.125
-0.11
-0.1
-0.09
-0.08
-0.075
-0.085
-0.08
-0.065
-0.06
-0.055
-0.06
-0.06
-0.065
-0.055
-0.045
-0.02
-0.03
-0.025
-0.045
-0.03
-0.025
-0.035
-0.05
-0.06
-0.065
-0.08
-0.085
-0.095
-0.105
-0.12
-0.12
-0.12
-0.13
-0.135
-0.145
-0.165
-0.155
-0.135
-0.135
-0.135
-0.155
-0.165
-0.175
-0.17
-0.165
-0.16
-0.175
-0.19
-0.18
-0.17
-0.16
-0.16
-0.17
-0.17
-0.165
-0.16
-0.16
-0.155
-0.16
-0.17
-0.155
-0.15
-0.15
-0.145
-0.14
-0.16
-0.16
-0.155
-0.135
-0.115
-0.09
-0.065
-0.01
0.085
0.225
0.37
0.495
0.6
0.74
0.855
0.94
0.945
0.89
0.775
0.625
0.46
0.235
0.025
-0.105
-0.14
-0.135
-0.13
-0.13
-0.13
-0.12
-0.13
-0.13
-0.15
-0.145
-0.175
-0.19
-0.2
-0.195
-0.19
-0.2
-0.21
-0.22
-0.225
-0.22
-0.22
-0.21
-0.215
-0.235
-0.24
-0.24
-0.23
-0.225
-0.22
-0.23
-0.235
-0.225
-0.23
-0.235
-0.23
-0.24
-0.255
-0.24
-0.235
-0.24
-0.24
-0.245
-0.255
-0.25
-0.24
-0.225
-0.23
-0.225
-0.22
-0.215
-0.21
-0.2
-0.2
-0.2
-0.195
-0.195
-0.195
-0.175
-0.175
-0.175
-0.185
-0.17
-0.15
-0.13
-0.12
-0.11
-0.115
-0.1
-0.09
-0.07
-0.065
-0.08
-0.08
-0.06
-0.06
-0.05
-0.065
-0.075
-0.1
-0.095
-0.1
-0.1
-0.115
-0.115
-0.135
-0.135
-0.14
-0.145
-0.15
-0.175
-0.19
-0.19
-0.19
-0.19
-0.195
-0.205
-0.215
-0.205
-0.205
-0.205
-0.215
-0.22
-0.225
-0.22
-0.21
-0.21
-0.21
-0.22
-0.23
-0.225
-0.22
-0.215
-0.23
-0.24
-0.255
-0.245
-0.24
-0.235
-0.23
-0.22
-0.215
-0.19
-0.17
-0.16
-0.17
-0.165
-0.17
-0.175
-0.18
-0.17
-0.17
-0.175
-0.185
-0.175
-0.175
-0.165
-0.175
-0.185
-0.2
-0.2
-0.195
-0.19
-0.185
-0.19
-0.195
-0.195
-0.19
-0.19
-0.195
-0.205
-0.205
-0.21
-0.21
-0.2
-0.205
-0.215
-0.23
-0.23
-0.225
-0.225
-0.225
-0.245
-0.25
-0.245
-0.24
-0.23
-0.235
-0.24
-0.25
-0.245
-0.24
-0.235
-0.24
-0.255
-0.245
-0.245
-0.235
-0.23
-0.215
-0.21
-0.205
-0.195
-0.185
-0.175
-0.18
-0.18
-0.185
-0.19
-0.175
-0.17
-0.18
-0.18
-0.185
-0.175
-0.17
-0.165
-0.18
-0.175
-0.175
-0.17
-0.165
-0.165
-0.165
-0.18
-0.17
-0.155
-0.135
-0.11
-0.09
-0.055
0.005
0.115
0.22
0.33
0.45
0.58
0.7
0.815
0.905
0.965
0.965
0.855
0.665
0.45
0.235
0.055
-0.075
-0.17
-0.21
-0.225
-0.205
-0.19
-0.19
-0.215
-0.245
-0.255
-0.25
-0.245
-0.26
-0.27
-0.28
-0.275
-0.255
-0.24
-0.23
-0.23
-0.225
-0.21
-0.2
-0.195
-0.21
-0.225
-0.225
-0.215
-0.2
-0.2
-0.215
-0.215
-0.215
-0.215
-0.195
-0.19
-0.185
-0.195
-0.205
-0.195
-0.18
-0.17
-0.17
-0.18
-0.18
-0.185
-0.175
-0.175
-0.185
-0.185
-0.19
-0.18
-0.18
-0.18
-0.19
-0.19
-0.185
-0.175
-0.18
-0.17
-0.175
-0.18
-0.185
-0.185
-0.17
-0.17
-0.175
-0.175
-0.18
-0.17
-0.16
-0.16
-0.15
-0.15
-0.145
-0.14
-0.135
-0.125
-0.115
-0.115
-0.12
-0.115
-0.09
-0.085
-0.075
-0.07
-0.075
-0.08
-0.09
-0.075
-0.095
-0.11
-0.115
-0.115
-0.12
-0.115
-0.12
-0.13
-0.145
-0.15
-0.14
-0.14
-0.15
-0.145
-0.16
-0.16
-0.16
-0.16
-0.16
-0.17
-0.175
-0.165
-0.17
-0.16
-0.175
-0.17
-0.18
-0.185
-0.175
-0.175
-0.175
-0.175
-0.195
-0.19
-0.18
-0.17
-0.165
-0.175
-0.175
-0.165
-0.155
-0.15
-0.15
-0.155
-0.16
-0.16
-0.15
-0.145
-0.15
-0.175
-0.16
-0.145
-0.125
-0.125
-0.125
-0.145
-0.16
-0.15
-0.135
-0.135
-0.145
-0.155
-0.165
-0.165
-0.15
-0.145
-0.155
-0.175
-0.175
-0.16
-0.17
-0.165
-0.175
-0.18
-0.18
-0.18
-0.17
-0.165
-0.175
-0.18
-0.195
-0.18
-0.18
-0.185
-0.185
-0.2
-0.205
-0.195
-0.18
-0.17
-0.16
-0.17
-0.18
-0.175
-0.16
-0.16
-0.18
-0.18
-0.185
-0.18
-0.17
-0.18
-0.18
-0.2
-0.21
-0.195
-0.17
-0.16
-0.175
-0.175
-0.175
-0.155
-0.135
-0.125
-0.14
-0.14
-0.135
-0.115
-0.105
-0.08
-0.065
-0.05
0.005
0.11
0.22
0.32
0.415
0.54
0.645
0.74
0.825
0.88
0.9
0.86
0.75
0.595
0.425
0.235
0.065
-0.03
-0.09
-0.11
-0.115
-0.12
-0.11
-0.125
-0.13
-0.125
-0.13
-0.135
-0.145
-0.16
-0.18
-0.18
-0.185
-0.19
-0.21
-0.22
-0.23
-0.24
-0.24
-0.235
-0.235
-0.24
-0.235
-0.22
-0.21
-0.195
-0.2
-0.2
-0.205
-0.2
-0.195
-0.185
-0.18
-0.185
-0.195
-0.18
-0.17
-0.18
-0.175
-0.18
-0.175
-0.175
-0.18
-0.165
-0.17
-0.175
-0.17
-0.17
-0.15
-0.14
-0.14
-0.15
-0.145
-0.14
-0.135
-0.135
-0.115
-0.125
-0.115
-0.115
-0.105
-0.095
-0.095
-0.09
-0.1
-0.1
-0.1
-0.1
-0.095
-0.11
-0.11
-0.105
-0.095
-0.1
-0.08
-0.085
-0.08
-0.065
-0.065
-0.065
-0.075
-0.09
-0.105
-0.1
-0.105
-0.11
-0.11
-0.125
-0.14
-0.14
-0.135
-0.13
-0.135
-0.145
-0.16
-0.155
-0.155
-0.16
-0.16
-0.17
-0.175
-0.175
-0.165
-0.16
-0.16
-0.165
-0.155
-0.15
-0.145
-0.14
-0.15
-0.16
-0.165
-0.17
-0.175
-0.185
-0.18
-0.195
-0.195
-0.175
-0.185
-0.175
-0.18
-0.18
-0.185
-0.175
-0.17
-0.16
-0.155
-0.155
-0.16
-0.165
-0.15
-0.135
-0.15
-0.15
-0.155
-0.155
-0.16
-0.16
-0.175
-0.18
-0.175
-0.17
-0.155
-0.155
-0.165
-0.165
-0.175
-0.165
-0.155
-0.15
-0.155
-0.165
-0.165
-0.175
-0.175
-0.165
-0.175
-0.18
-0.185
-0.18
-0.16
-0.155
-0.16
-0.17
-0.165
-0.165
-0.15
-0.155
-0.155
-0.175
-0.175
-0.17
-0.17
-0.17
-0.17
-0.195
-0.2
-0.18
-0.18
-0.18
-0.185
-0.175
-0.175
-0.155
-0.15
-0.155
-0.155
-0.15
-0.155
-0.145
-0.135
-0.145
-0.15
-0.15
-0.145
-0.13
-0.115
-0.09
-0.08
-0.045
0.045
0.165
0.26
0.36
0.465
0.565
0.68
0.775
0.87
0.945
0.96
0.89
0.75
0.575
0.38
0.19
0.025
-0.085
-0.14
-0.18
-0.19
-0.165
-0.14
-0.125
-0.13
-0.135
-0.155
-0.165
-0.18
-0.195
-0.21
-0.22
-0.205
-0.195
-0.21
-0.205
-0.21
-0.2
-0.195
-0.2
-0.19
-0.195
-0.215
-0.21
-0.2
-0.205
-0.21
-0.225
-0.215
-0.225
-0.205
-0.205
-0.21
-0.22
-0.225
-0.225
-0.22
-0.225
-0.23
-0.225
-0.23
-0.22
-0.215
-0.21
-0.21
-0.21
-0.215
-0.2
-0.19
-0.175
-0.17
-0.165
-0.145
-0.135
-0.125
-0.11
-0.11
-0.11
-0.13
-0.105
-0.09
-0.08
-0.075
-0.08
-0.07
-0.07
-0.05
-0.04
-0.04
-0.045
-0.04
-0.025
-0.015
-0.005
0
-0.02
-0.025
-0.015
-0.025
-0.035
-0.05
-0.06
-0.085
-0.09
-0.095
-0.11
-0.12
-0.135
-0.155
-0.155
-0.16
-0.17
-0.185
-0.195
-0.215
-0.225
-0.215
-0.23
-0.23
-0.24
-0.24
-0.24
-0.225
-0.225
-0.23
-0.235
-0.225
-0.21
-0.2
-0.19
-0.185
-0.175
-0.185
-0.165
-0.135
-0.13
-0.13
-0.135
-0.145
-0.14
-0.125
-0.13
-0.135
-0.145
-0.145
-0.15
-0.145
-0.135
-0.135
-0.15
-0.155
-0.145
-0.15
-0.15
-0.15
-0.155
-0.165
-0.165
-0.16
-0.15
-0.16
-0.18
-0.19
-0.185
-0.185
-0.185
-0.19
-0.19
-0.21
-0.215
-0.21
-0.205
-0.205
-0.205
-0.215
-0.22
-0.21
-0.205
-0.21
-0.22
-0.23
-0.22
-0.205
-0.2
-0.195
-0.185
-0.185
-0.18
-0.165
-0.145
-0.14
-0.15
-0.16
-0.15
-0.125
-0.11
-0.1
-0.1
-0.1
-0.085
-0.065
-0.05
-0.035
0.005
0.085
0.205
0.315
0.43
0.535
0.655
0.76
0.845
0.935
0.97
0.915
0.785
0.585
0.345
0.125
-0.05
-0.165
-0.245
-0.29
-0.28
-0.23
-0.2
-0.2
-0.215
-0.235
-0.235
-0.23
-0.235
-0.245
-0.25
-0.26
-0.245
-0.24
-0.235
-0.24
-0.24
-0.245
-0.245
-0.235
-0.225
-0.23
-0.24
-0.245
-0.22
-0.2
-0.185
-0.18
-0.19
-0.205
-0.195
-0.19
-0.185
-0.185
-0.19
-0.195
-0.19
-0.175
-0.175
-0.185
-0.18
-0.185
-0.175
-0.175
-0.165
-0.17
-0.18
-0.185
-0.18
-0.175
-0.165
-0.165
-0.185
-0.185
-0.19
-0.18
-0.175
-0.185
-0.18
-0.185
-0.17
-0.155
-0.15
-0.145
-0.15
-0.145
-0.15
-0.135
-0.125
-0.13
-0.14
-0.135
-0.125
-0.115
-0.105
-0.11
-0.115
-0.125
-0.115
-0.11
-0.105
-0.11
-0.115
-0.125
-0.125
-0.115
-0.11
-0.115
-0.125
-0.135
-0.13
-0.135
-0.135
-0.135
-0.14
-0.14
-0.125
-0.135
-0.14
-0.155
-0.165
-0.165
-0.17
-0.155
-0.155
-0.18
-0.195
-0.2
-0.19
-0.19
-0.185
-0.185
-0.18
-0.17
-0.165
-0.17
-0.17
-0.185
-0.185
-0.2
-0.195
-0.185
-0.175
-0.185
-0.195
-0.195
-0.175
-0.17
-0.17
-0.18
-0.19
-0.205
-0.195
-0.185
-0.175
-0.185
-0.19
-0.2
-0.19
-0.19
-0.185
-0.185
-0.205
-0.21
-0.2
-0.205
-0.2
-0.205
-0.22
-0.215
-0.21
-0.21
-0.205
-0.21
-0.22
-0.22
-0.22
-0.195
-0.195
-0.2
-0.2
-0.21
-0.205
-0.2
-0.195
-0.2
-0.215
-0.21
-0.205
-0.195
-0.2
-0.2
-0.21
-0.21
-0.215
-0.2
-0.2
-0.205
-0.22
-0.22
-0.22
-0.21
-0.21
-0.21
-0.22
-0.215
-0.225
-0.215
-0.225
-0.225
-0.235
-0.235
-0.215
-0.21
-0.2
-0.205
-0.205
-0.225
-0.21
-0.215
-0.21
-0.22
-0.23
-0.25
-0.24
-0.235
-0.23
-0.23
-0.245
-0.25
-0.235
-0.205
-0.195
-0.21
-0.215
-0.22
-0.215
-0.215
-0.195
-0.205
-0.21
-0.22
-0.195
-0.195
-0.19
-0.19
-0.205
-0.21
-0.185
-0.175
-0.16
-0.145
-0.13
-0.115
-0.085
-0.05
0.02
0.1
0.2
0.295
0.405
0.53
0.66
0.745
0.79
0.845
0.865
0.85
0.735
0.575
0.39
0.19
0.05
-0.015
-0.055
-0.09
-0.135
-0.145
-0.14
-0.15
-0.165
-0.18
-0.19
-0.2
-0.195
-0.19
-0.185
-0.195
-0.21
-0.225
-0.225
-0.225
-0.23
-0.225
-0.24
-0.245
-0.24
-0.23
-0.23
-0.245
-0.25
-0.25
-0.24
-0.23
-0.225
-0.215
-0.225
-0.23
-0.215
-0.21
-0.2
-0.205
-0.215
-0.21
-0.21
-0.195
-0.18
-0.185
-0.195
-0.195
-0.19
-0.185
-0.185
-0.17
-0.185
-0.185
-0.165
-0.15
-0.14
-0.15
-0.155
-0.16
-0.15
-0.145
-0.145
-0.135
-0.14
-0.14
-0.13
-0.12
-0.12
-0.115
-0.125
-0.12
-0.115
-0.115
-0.105
-0.11
-0.115
-0.11
-0.09
-0.08
-0.07
-0.09
-0.1
-0.09
-0.075
-0.075
-0.08
-0.085
-0.095
-0.115
-0.1
-0.105
-0.11
-0.125
-0.14
-0.145
-0.155
-0.145
-0.15
-0.16
-0.165
-0.165
-0.16
-0.165
-0.155
-0.165
-0.175
-0.175
-0.18
-0.17
-0.165
-0.175
-0.17
-0.185
-0.17
-0.17
-0.175
-0.18
-0.19
-0.2
-0.185
-0.185
-0.18
-0.2
-0.21
-0.205
-0.195
-0.18
-0.175
-0.18
-0.19
-0.2
-0.195
-0.18
-0.18
-0.195
-0.2
-0.205
-0.2
-0.19
-0.18
-0.18
-0.18
-0.175
-0.175
-0.165
-0.155
-0.175
-0.185
-0.19
-0.175
-0.17
-0.165
-0.17
-0.18
-0.195
-0.18
-0.18
-0.175
-0.18
-0.19
-0.2
-0.19
-0.185
-0.185
-0.18
-0.19
-0.2
-0.18
-0.185
-0.175
-0.18
-0.195
-0.2
-0.195
-0.185
-0.18
-0.185
-0.185
-0.2
-0.195
-0.19
-0.2
-0.205
-0.23
-0.24
-0.235
-0.225
-0.225
-0.23
-0.225
-0.23
-0.22
-0.215
-0.23
-0.23
-0.23
-0.23
-0.225
-0.23
-0.23
-0.225
-0.225
-0.22
-0.225
-0.215
-0.22
-0.23
-0.225
-0.23
-0.215
-0.205
-0.195
-0.2
-0.205
-0.21
-0.2
-0.205
-0.205
-0.21
-0.225
-0.22
-0.205
-0.2
-0.195
-0.205
-0.21
-0.2
-0.19
-0.19
-0.19
-0.195
-0.195
-0.19
-0.17
-0.15
-0.135
-0.13
-0.12
-0.105
-0.045
0.06
0.16
0.265
0.355
0.45
0.565
0.67
0.735
0.795
0.825
0.82
0.75
0.615
0.435
0.235
0.04
-0.08
-0.125
-0.155
-0.155
-0.165
-0.165
-0.16
-0.17
-0.17
-0.18
-0.205
-0.21
-0.225
-0.235
-0.235
-0.23
-0.235
-0.245
-0.235
-0.225
-0.225
-0.225
-0.23
-0.23
-0.22
-0.215
-0.205
-0.21
-0.225
-0.225
-0.225
-0.22
-0.22
-0.225
-0.23
-0.235
-0.23
-0.225
-0.21
-0.215
-0.22
-0.21
-0.2
-0.18
-0.17
-0.18
-0.18
-0.185
-0.185
-0.18
-0.17
-0.17
-0.17
-0.165
-0.165
-0.145
-0.14
-0.14
-0.135
-0.14
-0.14
-0.145
-0.13
-0.135
-0.135
-0.14
-0.145
-0.145
-0.13
-0.12
-0.13
-0.125
-0.105
-0.085
-0.065
-0.065
-0.065
-0.075
-0.075
-0.065
-0.07
-0.065
-0.06
-0.07
-0.08
-0.08
-0.08
-0.08
-0.09
-0.11
-0.12
-0.14
-0.135
-0.14
-0.14
-0.14
-0.145
-0.14
-0.145
-0.145
-0.16
-0.18
-0.19
-0.19
-0.185
-0.2
-0.205
-0.21
-0.22
-0.205
-0.2
-0.2
-0.2
-0.195
-0.195
-0.185
-0.18
-0.18
-0.175
-0.18
-0.18
-0.19
-0.175
-0.17
-0.185
-0.19
-0.205
-0.195
-0.19
-0.19
-0.19
-0.185
-0.175
-0.15
-0.135
-0.14
-0.145
-0.155
-0.16
-0.125
-0.11
-0.08
-0.065
-0.04
0
0.085
0.185
0.31
0.42
0.495
0.575
0.68
0.79
0.895
0.95
0.96
0.92
0.835
0.695
0.52
0.305
0.08
-0.075
-0.13
-0.145
-0.15
-0.16
-0.17
-0.17
-0.165
-0.16
-0.165
-0.185
-0.21
-0.225
-0.215
-0.215
-0.215
-0.22
-0.225
-0.235
-0.24
-0.225
-0.23
-0.235
-0.25
-0.27
-0.265
-0.265
-0.27
-0.275
-0.28
-0.275
-0.265
-0.26
-0.255
-0.245
-0.255
-0.265
-0.25
-0.23
-0.235
-0.25
-0.255
-0.25
-0.255
-0.245
-0.235
-0.23
-0.245
-0.25
-0.245
-0.24
-0.24
-0.245
-0.245
-0.25
-0.23
-0.23
-0.22
-0.23
-0.23
-0.225
-0.215
-0.215
-0.205
-0.2
-0.2
-0.195
-0.18
-0.175
-0.17
-0.18
-0.17
-0.17
-0.15
-0.145
-0.135
-0.14
-0.145
-0.135
-0.115
-0.105
-0.1
-0.105
-0.12
-0.115
-0.115
-0.1
-0.095
-0.11
-0.115
-0.12
-0.11
-0.105
-0.105
-0.12
-0.14
-0.155
-0.155
-0.135
-0.145
-0.16
-0.17
-0.18
-0.175
-0.18
-0.175
-0.185
-0.195
-0.2
-0.195
-0.195
-0.195
-0.205
-0.215
-0.225
-0.23
-0.22
-0.215
-0.23
-0.24
-0.23
-0.23
-0.215
-0.215
-0.225
-0.23
-0.235
-0.215
-0.215
-0.205
-0.21
-0.205
-0.22
-0.205
-0.2
-0.2
-0.21
-0.21
-0.21
-0.21
-0.205
-0.2
-0.21
-0.22
-0.21
-0.225
-0.2
-0.2
-0.2
-0.21
-0.215
-0.205
-0.2
-0.21
-0.21
-0.22
-0.225
-0.22
-0.23
-0.225
-0.24
-0.24
-0.24
-0.235
-0.225
-0.235
-0.245
-0.255
-0.26
-0.26
-0.25
-0.265
-0.265
-0.27
-0.27
-0.265
-0.27
-0.27
-0.27
-0.285
-0.29
-0.285
-0.275
-0.265
-0.275
-0.275
-0.26
-0.26
-0.26
-0.265
-0.265
-0.275
-0.275
-0.27
-0.27
-0.265
-0.275
-0.275
-0.275
-0.255
-0.24
-0.23
-0.225
-0.23
-0.22
-0.2
-0.195
-0.205
-0.205
-0.215
-0.21
-0.205
-0.19
-0.185
-0.185
-0.185
-0.18
-0.17
-0.17
-0.17
-0.165
-0.165
-0.155
-0.14
-0.105
-0.095
-0.075
-0.035
0.055
0.155
0.26
0.365
0.5
0.62
0.73
0.84
0.93
0.965
0.91
0.775
0.6
0.41
0.21
0.035
-0.09
-0.175
-0.23
-0.23
-0.21
-0.19
-0.195
-0.22
-0.245
-0.255
-0.26
-0.275
-0.29
-0.31
-0.32
-0.31
-0.315
-0.3
-0.3
-0.295
-0.29
-0.27
-0.245
-0.235
-0.23
-0.245
-0.24
-0.225
-0.215
-0.21
-0.21
-0.22
-0.215
-0.21
-0.2
-0.19
-0.2
-0.215
-0.22
-0.2
-0.195
-0.19
-0.19
-0.205
-0.2
-0.2
-0.175
-0.175
-0.18
-0.19
-0.195
-0.18
-0.18
-0.17
-0.17
-0.185
-0.185
-0.17
-0.165
-0.17
-0.17
-0.185
-0.195
-0.175
-0.175
-0.17
-0.18
-0.195
-0.21
-0.205
-0.2
-0.195
-0.195
-0.21
-0.21
-0.2
-0.185
-0.17
-0.17
-0.175
-0.16
-0.14
-0.13
-0.11
-0.115
-0.115
-0.11
-0.095
-0.09
-0.095
-0.095
-0.1
-0.095
-0.09
-0.105
-0.1
-0.11
-0.125
-0.14
-0.13
-0.13
-0.13
-0.13
-0.14
-0.14
-0.135
-0.13
-0.125
-0.135
-0.15
-0.15
-0.135
-0.13
-0.125
-0.135
-0.155
-0.165
-0.16
-0.15
-0.16
-0.165
-0.175
-0.18
-0.17
-0.175
-0.175
-0.18
-0.2
-0.2
-0.195
-0.195
-0.195
-0.205
-0.215
-0.225
-0.23
-0.21
-0.205
-0.21
-0.225
-0.22
-0.22
-0.215
-0.22
-0.23
-0.24
-0.245
-0.235
-0.225
-0.2
-0.175
-0.17
-0.16
-0.155
-0.155
-0.15
-0.16
-0.17
-0.175
-0.16
-0.16
-0.16
-0.18
-0.175
-0.17
-0.155
-0.15
-0.155
-0.155
-0.17
-0.18
-0.165
-0.17
-0.165
-0.175
-0.18
-0.175
-0.18
-0.18
-0.185
-0.195
-0.205
-0.215
-0.225
-0.22
-0.23
-0.22
-0.23
-0.23
-0.23
-0.225
-0.235
-0.23
-0.23
-0.23
-0.225
-0.225
-0.21
-0.21
-0.205
-0.205
-0.2
-0.185
-0.18
-0.175
-0.185
-0.17
-0.145
-0.125
-0.11
-0.085
-0.04
0.04
0.15
0.25
0.345
0.435
0.53
0.655
0.75
0.82
0.87
0.895
0.84
0.72
0.575
0.405
0.225
0.08
0
-0.045
-0.07
-0.09
-0.1
-0.105
-0.12
-0.14
-0.15
-0.155
-0.175
-0.185
-0.2
-0.215
-0.22
-0.215
-0.21
-0.225
-0.235
-0.255
-0.245
-0.255
-0.245
-0.245
-0.27
-0.27
-0.255
-0.26
-0.255
-0.255
-0.26
-0.265
-0.24
-0.235
-0.225
-0.235
-0.24
-0.24
-0.22
-0.22
-0.225
-0.22
-0.22
-0.215
-0.2
-0.195
-0.185
-0.175
-0.175
-0.17
-0.16
-0.145
-0.135
-0.14
-0.135
-0.14
-0.14
-0.14
-0.13
-0.13
-0.135
-0.14
-0.13
-0.13
-0.135
-0.135
-0.14
-0.14
-0.14
-0.13
-0.13
-0.135
-0.15
-0.145
-0.14
-0.135
-0.14
-0.14
-0.145
-0.155
-0.145
-0.14
-0.145
-0.145
-0.17
-0.165
-0.165
-0.17
-0.165
-0.185
-0.19
-0.19
-0.185
-0.175
-0.175
-0.19
-0.19
-0.19
-0.18
-0.175
-0.19
-0.2
-0.2
-0.205
-0.2
-0.18
-0.18
-0.175
-0.18
-0.17
-0.16
-0.155
-0.16
-0.17
-0.185
-0.18
-0.175
-0.165
-0.17
-0.175
-0.175
-0.18
-0.17
-0.165
-0.165
-0.18
-0.195
-0.205
-0.185
-0.185
-0.185
-0.195
-0.205
-0.21
-0.205
-0.19
-0.195
-0.195
-0.215
-0.22
-0.21
-0.2
-0.215
-0.225
-0.23
-0.225
-0.22
-0.22
-0.21
-0.225
-0.23
-0.225
-0.215
-0.21
-0.215
-0.215
-0.22
-0.225
-0.22
-0.215
-0.21
-0.22
-0.23
-0.22
-0.215
-0.2
-0.21
-0.225
-0.235
-0.245
-0.235
-0.225
-0.22
-0.225
-0.24
-0.23
-0.225
-0.21
-0.22
-0.23
-0.23
-0.23
-0.215
-0.2
-0.205
-0.215
-0.21
-0.215
-0.215
-0.195
-0.215
-0.225
-0.235
-0.23
-0.22
-0.21
-0.215
-0.24
-0.245
-0.24
-0.23
-0.22
-0.23
-0.235
-0.23
-0.215
-0.185
-0.17
-0.17
-0.145
-0.145
-0.145
-0.1
-0.01
0.075
0.175
0.27
0.37
0.515
0.64
0.725
0.795
0.85
0.835
0.73
0.575
0.39
0.175
-0.02
-0.13
-0.185
-0.195
-0.21
-0.205
-0.195
-0.19
-0.17
-0.16
-0.18
-0.195
-0.2
-0.21
-0.19
-0.195
-0.2
-0.205
-0.21
-0.22
-0.21
-0.195
-0.2
-0.215
-0.225
-0.225
-0.22
-0.21
-0.21
-0.21
-0.22
-0.225
-0.21
-0.21
-0.21
-0.21
-0.22
-0.21
-0.19
-0.185
-0.205
-0.21
-0.22
-0.225
-0.215
-0.21
-0.215
-0.225
-0.225
-0.225
-0.215
-0.21
-0.215
-0.23
-0.235
-0.225
-0.225
-0.21
-0.205
-0.21
-0.205
-0.19
-0.175
-0.15
-0.15
-0.15
-0.175
-0.17
-0.155
-0.15
-0.15
-0.155
-0.145
-0.145
-0.125
-0.11
-0.125
-0.11
-0.12
-0.11
-0.105
-0.09
-0.1
-0.11
-0.12
-0.12
-0.13
-0.13
-0.13
-0.16
-0.18
-0.18
-0.17
-0.165
-0.165
-0.17
-0.175
-0.195
-0.185
-0.19
-0.205
-0.205
-0.205
-0.2
-0.2
-0.175
-0.18
-0.18
-0.18
-0.18
-0.18
-0.175
-0.18
-0.18
-0.18
-0.175
-0.175
-0.17
-0.185
-0.185
-0.195
-0.195
-0.185
-0.17
-0.175
-0.175
-0.18
-0.195
-0.18
-0.18
-0.18
-0.18
-0.175
-0.175
-0.16
-0.14
-0.11
-0.08
-0.04
0.05
0.17
0.31
0.43
0.515
0.61
0.735
0.85
0.91
0.905
0.83
0.68
0.485
0.28
0.09
-0.04
-0.095
-0.105
-0.115
-0.125
-0.115
-0.115
-0.125
-0.16
-0.17
-0.175
-0.17
-0.18
-0.2
-0.205
-0.22
-0.23
-0.225
-0.24
-0.24
-0.26
-0.27
-0.265
-0.26
-0.26
-0.275
-0.285
-0.295
-0.295
-0.285
-0.295
-0.305
-0.315
-0.32
-0.315
-0.305
-0.31
-0.315
-0.32
-0.32
-0.31
-0.305
-0.3
-0.29
-0.295
-0.285
-0.265
-0.26
-0.245
-0.235
-0.24
-0.235
-0.225
-0.21
-0.2
-0.215
-0.215
-0.225
-0.205
-0.195
-0.2
-0.205
-0.195
-0.19
-0.18
-0.165
-0.145
-0.14
-0.135
-0.135
-0.13
-0.11
-0.105
-0.11
-0.125
-0.13
-0.135
-0.13
-0.135
-0.15
-0.165
-0.18
-0.185
-0.18
-0.195
-0.205
-0.21
-0.215
-0.21
-0.205
-0.21
-0.215
-0.225
-0.225
-0.19
-0.175
-0.155
-0.13
-0.12
-0.07
0.015
0.115
0.19
0.25
0.31
0.365
0.405
0.43
0.41
0.38
0.34
0.335
0.35
0.36
0.365
0.355
0.36
0.37
0.38
0.385
0.365
0.36
0.34
0.335
0.33
0.32
0.245
0.155
0.075
-0.005
-0.05
-0.11
-0.17
-0.225
-0.265
-0.29
-0.32
-0.335
-0.35
-0.355
-0.365
-0.375
-0.355
-0.35
-0.36
-0.37
-0.375
-0.37
-0.365
-0.355
-0.365
-0.36
-0.365
-0.355
-0.345
-0.335
-0.34
-0.335
-0.35
-0.355
-0.355
-0.345
-0.34
-0.34
-0.335
-0.345
-0.33
-0.3
-0.305
-0.3
-0.295
-0.29
-0.285
-0.27
-0.265
-0.28
-0.28
-0.275
-0.26
-0.235
-0.245
-0.245
-0.265
-0.245
-0.24
-0.23
-0.23
-0.225
-0.23
-0.205
-0.185
-0.155
-0.15
-0.135
-0.125
-0.135
-0.11
-0.09
-0.085
-0.08
-0.07
-0.06
-0.045
-0.04
-0.035
-0.05
-0.05
-0.055
-0.06
-0.06
-0.07
-0.095
-0.11
-0.12
-0.13
-0.13
-0.145
-0.165
-0.165
-0.17
-0.175
-0.155
-0.17
-0.175
-0.2
-0.205
-0.2
-0.205
-0.21
-0.23
-0.235
-0.24
-0.24
-0.235
-0.245
-0.25
-0.285
-0.265
-0.27
-0.26
-0.275
-0.28
-0.285
-0.29
-0.27
-0.27
-0.275
-0.275
-0.28
-0.28
-0.265
-0.27
-0.275
-0.285
-0.29
-0.28
-0.265
-0.26
-0.275
-0.29
-0.29
-0.29
-0.275
-0.275
-0.29
-0.295
-0.295
-0.29
-0.285
-0.275
-0.275
-0.285
-0.285
-0.28
-0.265
-0.255
-0.255
-0.255
-0.27
-0.26
-0.255
-0.245
-0.25
-0.25
-0.255
-0.265
-0.27
-0.265
-0.26
-0.265
-0.275
-0.275
-0.26
-0.25
-0.27
-0.275
-0.28
-0.29
-0.29
-0.27
-0.28
-0.28
-0.295
-0.3
-0.3
-0.28
-0.28
-0.285
-0.3
-0.3
-0.3
-0.285
-0.285
-0.28
-0.29
-0.28
-0.285
-0.27
-0.265
-0.265
-0.275
-0.285
-0.265
-0.25
-0.24
-0.245
-0.24
-0.225
-0.2
-0.16
-0.125
-0.11
-0.09
-0.065
0
0.095
0.185
0.26
0.345
0.46
0.575
0.675
0.735
0.79
0.795
0.76
0.635
0.47
0.245
0.045
-0.085
-0.135
-0.165
-0.175
-0.195
-0.185
-0.205
-0.205
-0.22
-0.235
-0.255
-0.26
-0.285
-0.28
-0.28
-0.28
-0.29
-0.305
-0.305
-0.315
-0.31
-0.295
-0.305
-0.305
-0.305
-0.305
-0.305
-0.29
-0.3
-0.305
-0.305
-0.3
-0.29
-0.285
-0.285
-0.29
-0.29
-0.29
-0.275
-0.285
-0.285
-0.29
-0.295
-0.29
-0.29
-0.27
-0.26
-0.255
-0.255
-0.255
-0.245
-0.235
-0.22
-0.215
-0.215
-0.21
-0.205
-0.19
-0.175
-0.175
-0.18
-0.175
-0.17
-0.16
-0.16
-0.165
-0.17
-0.18
-0.165
-0.155
-0.145
-0.155
-0.145
-0.125
-0.115
-0.095
-0.09
-0.1
-0.1
-0.1
-0.095
-0.09
-0.085
-0.1
-0.115
-0.12
-0.125
-0.115
-0.125
-0.15
-0.17
-0.175
-0.195
-0.195
-0.195
-0.225
-0.215
-0.215
-0.21
-0.2
-0.21
-0.225
-0.225
-0.22
-0.21
-0.205
-0.2
-0.21
-0.2
-0.2
-0.195
-0.18
-0.18
-0.18
-0.175
-0.185
-0.175
-0.165
-0.165
-0.175
-0.18
-0.175
-0.17
-0.155
-0.145
-0.155
-0.155
-0.16
-0.16
-0.155
-0.15
-0.155
-0.165
-0.165
-0.165
-0.165
-0.175
-0.19
-0.205
-0.215
-0.215
-0.21
-0.21
-0.22
-0.235
-0.24
-0.245
-0.24
-0.245
-0.255
-0.28
-0.285
-0.285
-0.27
-0.275
-0.28
-0.28
-0.285
-0.285
-0.27
-0.27
-0.28
-0.275
-0.25
-0.21
-0.175
-0.125
-0.045
0.05
0.155
0.26
0.36
0.465
0.545
0.605
0.66
0.7
0.73
0.69
0.575
0.43
0.245
0.08
0.005
-0.035
-0.065
-0.105
-0.125
-0.14
-0.135
-0.145
-0.17
-0.2
-0.205
-0.22
-0.215
-0.22
-0.245
-0.265
-0.265
-0.275
-0.26
-0.26
-0.265
-0.29
-0.295
-0.285
-0.285
-0.28
-0.295
-0.3
-0.3
-0.305
-0.29
-0.295
-0.305
-0.32
-0.315
-0.32
-0.295
-0.3
-0.31
-0.325
-0.32
-0.315
-0.29
-0.295
-0.275
-0.29
-0.28
-0.255
-0.24
-0.225
-0.225
-0.23
-0.22
-0.195
-0.195
-0.185
-0.185
-0.2
-0.19
-0.185
-0.185
-0.17
-0.185
-0.2
-0.195
-0.19
-0.18
-0.18
-0.185
-0.19
-0.18
-0.185
-0.16
-0.155
-0.165
-0.165
-0.17
-0.165
-0.16
-0.175
-0.17
-0.18
-0.18
-0.18
-0.18
-0.185
-0.2
-0.225
-0.22
-0.22
-0.215
-0.215
-0.23
-0.25
-0.25
-0.245
-0.235
-0.245
-0.26
-0.275
-0.27
-0.255
-0.245
-0.245
-0.25
-0.26
-0.26
-0.245
-0.23
-0.205
-0.21
-0.21
-0.195
-0.18
-0.185
-0.175
-0.2
-0.21
-0.21
-0.2
-0.2
-0.2
-0.215
-0.22
-0.21
-0.21
-0.2
-0.21
-0.22
-0.24
-0.23
-0.225
-0.215
-0.22
-0.23
-0.255
-0.26
-0.245
-0.235
-0.24
-0.265
-0.27
-0.255
-0.245
-0.235
-0.235
-0.255
-0.27
-0.265
-0.255
-0.25
-0.235
-0.24
-0.25
-0.245
-0.23
-0.225
-0.22
-0.23
-0.245
-0.25
-0.245
-0.235
-0.235
-0.245
-0.26
-0.25
-0.24
-0.24
-0.245
-0.26
-0.27
-0.275
-0.28
-0.27
-0.275
-0.28
-0.28
-0.26
-0.24
-0.215
-0.215
-0.22
-0.24
-0.235
-0.24
-0.225
-0.23
-0.235
-0.25
-0.255
-0.24
-0.255
-0.25
-0.255
-0.27
-0.27
-0.27
-0.26
-0.26
-0.26
-0.27
-0.27
-0.265
-0.255
-0.25
-0.245
-0.25
-0.245
-0.25
-0.24
-0.235
-0.24
-0.235
-0.23
-0.235
-0.22
-0.23
-0.235
-0.24
-0.24
-0.24
-0.23
-0.24
-0.24
-0.25
-0.245
-0.235
-0.24
-0.245
-0.255
-0.27
-0.255
-0.25
-0.25
-0.26
-0.27
-0.285
-0.26
-0.25
-0.25
-0.24
-0.24
-0.245
-0.245
-0.23
-0.22
-0.215
-0.22
-0.23
-0.225
-0.22
-0.215
-0.215
-0.225
-0.23
-0.235
-0.23
-0.215
-0.215
-0.22
-0.24
-0.24
-0.24
-0.23
-0.23
-0.235
-0.24
-0.23
-0.23
-0.22
-0.22
-0.215
-0.235
-0.245
-0.225
-0.22
-0.21
-0.22
-0.22
-0.205
-0.17
-0.155
-0.13
-0.105
-0.095
-0.05
0.015
0.11
0.215
0.32
0.415
0.54
0.665
0.765
0.85
0.925
0.965
0.94
0.83
0.66
0.45
0.225
0.015
-0.12
-0.2
-0.265
-0.3
-0.32
-0.3
-0.23
-0.19
-0.17
-0.165
-0.185
-0.195
-0.2
-0.2
-0.205
-0.205
-0.21
-0.205
-0.195
-0.195
-0.205
-0.22
-0.23
-0.245
-0.23
-0.23
-0.225
-0.235
-0.245
-0.26
-0.255
-0.255
-0.25
-0.255
-0.26
-0.255
-0.24
-0.245
-0.23
-0.235
-0.24
-0.255
-0.255
-0.235
-0.225
-0.23
-0.24
-0.25
-0.25
-0.25
-0.245
-0.25
-0.26
-0.255
-0.25
-0.25
-0.24
-0.24
-0.255
-0.265
-0.245
-0.24
-0.23
-0.22
-0.215
-0.235
-0.22
-0.205
-0.185
-0.2
-0.2
-0.21
-0.19
-0.17
-0.135
-0.12
-0.105
-0.1
-0.08
-0.06
-0.045
-0.03
-0.03
-0.035
-0.03
-0.015
-0.01
-0.015
-0.01
-0.01
-0.01
-0.005
-0.01
-0.015
-0.03
-0.035
-0.04
-0.03
-0.03
-0.045
-0.05
-0.075
-0.075
-0.085
-0.09
-0.105
-0.12
-0.13
-0.14
-0.14
-0.14
-0.16
-0.185
-0.185
-0.185
-0.175
-0.175
-0.18
-0.205
-0.215
-0.2
-0.205
-0.185
-0.2
-0.195
-0.215
-0.2
-0.19
-0.165
-0.165
-0.18
-0.19
-0.175
-0.16
-0.15
-0.15
-0.16
-0.15
-0.14
-0.13
-0.115
-0.12
-0.125
-0.12
-0.105
-0.09
-0.07
-0.055
-0.05
-0.04
0.025
0.11
0.225
0.345
0.455
0.545
0.645
0.735
0.83
0.9
0.925
0.9
0.845
0.73
0.58
0.395
0.205
0.045
-0.065
-0.13
-0.15
-0.18
-0.195
-0.21
-0.19
-0.175
-0.175
-0.195
-0.22
-0.24
-0.245
-0.25
-0.235
-0.255
-0.265
-0.275
-0.265
-0.26
-0.26
-0.26
-0.26
-0.275
-0.255
-0.26
-0.25
-0.245
-0.245
-0.255
-0.25
-0.235
-0.24
-0.235
-0.245
-0.25
-0.235
-0.225
-0.215
-0.215
-0.21
-0.21
-0.205
-0.18
-0.17
-0.175
-0.19
-0.205
-0.2
-0.205
-0.2
-0.205
-0.2
-0.215
-0.22
-0.22
-0.22
-0.205
-0.21
-0.215
-0.21
-0.2
-0.195
-0.185
-0.195
-0.21
-0.205
-0.2
-0.18
-0.175
-0.18
-0.19
-0.185
-0.175
-0.15
-0.145
-0.135
-0.145
-0.125
-0.115
-0.1
-0.095
-0.105
-0.105
-0.115
-0.11
-0.115
-0.12
-0.13
-0.145
-0.155
-0.15
-0.165
-0.18
-0.195
-0.22
-0.23
-0.23
-0.23
-0.225
-0.25
-0.26
-0.26
-0.255
-0.26
-0.265
-0.27
-0.28
-0.28
-0.275
-0.265
-0.27
-0.27
-0.275
-0.27
-0.265
-0.25
-0.25
-0.245
-0.25
-0.245
-0.24
-0.22
-0.215
-0.21
-0.22
-0.215
-0.195
-0.185
-0.18
-0.175
-0.18
-0.17
-0.165
-0.155
-0.15
-0.155
-0.175
-0.165
-0.165
-0.15
-0.16
-0.165
-0.17
-0.16
-0.155
-0.155
-0.155
-0.17
-0.175
-0.17
-0.175
-0.185
-0.2
-0.205
-0.215
-0.22
-0.23
-0.22
-0.23
-0.23
-0.25
-0.245
-0.245
-0.24
-0.245
-0.26
-0.26
-0.26
-0.26
-0.26
-0.27
-0.265
-0.285
-0.285
-0.28
-0.28
-0.28
-0.3
-0.305
-0.31
-0.295
-0.29
-0.295
-0.29
-0.3
-0.28
-0.265
-0.245
-0.245
-0.235
-0.24
-0.225
-0.225
-0.22
-0.225
-0.235
-0.235
-0.235
-0.21
-0.195
-0.18
-0.175
-0.18
-0.17
-0.16
-0.165
-0.165
-0.18
-0.19
-0.195
-0.195
-0.185
-0.19
-0.2
-0.205
-0.215
-0.21
-0.195
-0.2
-0.22
-0.225
-0.235
-0.225
-0.215
-0.215
-0.215
-0.215
-0.205
-0.185
-0.175
-0.16
-0.14
-0.135
-0.09
-0.02
0.065
0.155
0.235
0.31
0.425
0.54
0.61
0.665
0.715
0.725
0.7
0.62
0.505
0.345
0.175
0.025
-0.07
-0.125
-0.155
-0.175
-0.195
-0.195
-0.18
-0.16
-0.16
-0.175
-0.19
-0.21
-0.2
-0.185
-0.175
-0.165
-0.185
-0.21
-0.205
-0.2
-0.205
-0.22
-0.23
-0.25
-0.25
-0.23
-0.23
-0.245
-0.255
-0.275
-0.27
-0.265
-0.26
-0.26
-0.265
-0.27
-0.265
-0.26
-0.25
-0.26
-0.26
-0.27
-0.26
-0.26
-0.25
-0.26
-0.27
-0.28
-0.275
-0.26
-0.26
-0.26
-0.27
-0.275
-0.275
-0.27
-0.26
-0.265
-0.265
-0.275
-0.26
-0.26
-0.25
-0.245
-0.245
-0.26
-0.255
-0.245
-0.24
-0.245
-0.245
-0.255
-0.24
-0.23
-0.215
-0.205
-0.19
-0.19
-0.165
-0.15
-0.13
-0.13
-0.14
-0.145
-0.135
-0.125
-0.12
-0.115
-0.125
-0.13
-0.12
-0.115
-0.095
-0.1
-0.11
-0.115
-0.115
-0.12
-0.115
-0.125
-0.145
-0.16
-0.165
-0.155
-0.155
-0.18
-0.195
-0.22
-0.21
-0.19
-0.21
