0
0
0
0
0
0
0
0
0
0.005
0.015
0.025
0.035
0.035
0.015
0.015
0.025
0.05
0.06
0.055
0.04
0.045
0.065
0.085
0.095
0.085
0.085
0.085
0.105
0.125
0.135
0.135
0.135
0.145
0.15
0.175
0.195
0.2
0.18
0.19
0.215
0.255
0.27
0.275
0.265
0.27
0.28
0.305
0.325
0.32
0.325
0.32
0.335
0.35
0.355
0.335
0.325
0.315
0.315
0.31
0.29
0.265
0.235
0.215
0.195
0.18
0.17
0.14
0.105
0.085
0.09
0.085
0.075
0.045
0.01
-0.01
-0.01
0.005
0.005
-0.015
-0.03
-0.045
-0.045
-0.025
-0.03
-0.03
-0.05
-0.07
-0.05
-0.04
-0.035
-0.05
-0.07
-0.07
-0.06
-0.045
-0.045
-0.06
-0.06
-0.075
-0.05
-0.04
-0.03
-0.035
-0.06
-0.085
-0.065
-0.045
-0.045
-0.05
-0.065
-0.075
-0.06
-0.055
-0.05
-0.06
-0.08
-0.085
-0.075
-0.045
-0.04
-0.055
-0.06
-0.075
-0.065
-0.06
-0.055
-0.055
-0.075
-0.07
-0.05
-0.045
-0.045
-0.055
-0.07
-0.08
-0.075
-0.055
-0.045
-0.06
-0.07
-0.085
-0.065
-0.05
-0.05
-0.05
-0.065
-0.075
-0.06
-0.05
-0.04
-0.05
-0.07
-0.065
-0.06
-0.065
-0.055
-0.055
-0.08
-0.08
-0.065
-0.055
-0.04
-0.045
-0.065
-0.08
-0.07
-0.06
-0.06
-0.07
-0.065
-0.085
-0.05
-0.045
-0.05
-0.055
-0.07
-0.07
-0.05
-0.05
-0.035
-0.045
-0.065
-0.065
-0.06
-0.055
-0.055
-0.055
-0.065
-0.055
-0.05
-0.04
-0.035
-0.04
-0.06
-0.065
-0.065
-0.045
-0.055
-0.055
-0.06
-0.065
-0.07
-0.05
-0.04
-0.05
-0.06
-0.065
-0.05
-0.025
-0.03
-0.045
-0.055
-0.065
-0.05
-0.045
-0.04
-0.045
-0.05
-0.065
-0.055
-0.03
-0.04
-0.035
-0.04
-0.055
-0.05
-0.02
-0.03
-0.045
-0.05
-0.05
-0.04
-0.025
-0.03
-0.035
-0.055
-0.035
-0.03
-0.02
-0.025
-0.025
-0.035
-0.04
-0.025
-0.015
-0.02
-0.03
-0.035
-0.05
-0.025
-0.015
-0.02
-0.02
-0.04
-0.05
-0.025
-0.02
-0.005
-0.02
-0.025
-0.025
-0.02
-0.005
-0.01
-0.01
-0.04
-0.025
-0.015
-0.005
0.005
-0.01
-0.03
-0.03
-0.02
-0.005
-0.01
-0.025
-0.035
-0.035
-0.01
-0.005
0
-0.005
-0.025
-0.02
-0.02
-0.01
0
-0.02
-0.035
-0.045
-0.04
-0.015
0
0.015
0.025
0.015
0.045
0.045
0.06
0.05
0.025
0.04
0.045
0.05
0.04
0.02
0.005
0
-0.01
0.01
-0.005
-0.015
-0.035
-0.035
-0.04
-0.025
-0.005
-0.005
-0.005
-0.025
-0.02
-0.005
-0.01
-0.005
-0.025
-0.015
-0.02
0.015
0.015
0.025
0.025
0.03
0.07
0.1
0.14
0.15
0.175
0.235
0.325
0.465
0.59
0.74
0.875
1.005
1.14
1.29
1.415
1.465
1.44
1.3
1.105
0.88
0.67
0.47
0.285
0.135
0.065
0.05
0.055
0.065
0.06
0.045
0.03
0.03
0.02
0
-0.03
-0.045
-0.045
-0.035
-0.035
-0.055
-0.065
-0.07
-0.065
-0.055
-0.065
-0.055
-0.08
-0.075
-0.085
-0.06
-0.055
-0.065
-0.085
-0.11
-0.08
-0.07
-0.055
-0.08
-0.09
-0.095
-0.08
-0.065
-0.05
-0.065
-0.065
-0.07
-0.065
-0.045
-0.04
-0.05
-0.055
-0.07
-0.055
-0.025
-0.015
-0.015
-0.03
-0.025
-0.03
0.01
0.02
0.025
0
0.005
0.03
0.055
0.055
0.065
0.06
0.07
0.09
0.12
0.13
0.13
0.13
0.15
0.16
0.175
0.2
0.205
0.2
0.215
0.23
0.26
0.29
0.275
0.285
0.285
0.31
0.335
0.32
0.335
0.31
0.31
0.315
0.305
0.295
0.265
0.235
0.2
0.21
0.205
0.185
0.155
0.12
0.09
0.1
0.08
0.075
0.055
0.02
0.015
0.01
0.015
0.01
-0.01
-0.03
-0.04
-0.05
-0.035
-0.035
-0.045
-0.075
-0.06
-0.055
-0.045
-0.04
-0.045
-0.055
-0.06
-0.07
-0.04
-0.045
-0.05
-0.065
-0.075
-0.065
-0.04
-0.035
-0.05
-0.055
-0.06
-0.045
-0.05
-0.025
-0.04
-0.055
-0.06
-0.05
-0.025
-0.025
-0.025
-0.04
-0.05
-0.04
-0.03
-0.02
-0.035
-0.045
-0.045
-0.045
-0.025
-0.02
-0.025
-0.04
-0.04
-0.035
-0.025
-0.02
-0.03
-0.04
-0.035
-0.035
-0.03
-0.025
-0.04
-0.06
-0.07
-0.045
-0.04
-0.03
-0.04
-0.055
-0.055
-0.05
-0.03
-0.035
-0.04
-0.055
-0.055
-0.055
-0.03
-0.04
-0.05
-0.055
-0.055
-0.05
-0.04
-0.055
-0.05
-0.06
-0.06
-0.065
-0.05
-0.05
-0.05
-0.07
-0.075
-0.06
-0.045
-0.05
-0.07
-0.075
-0.065
-0.05
-0.045
-0.03
-0.05
-0.06
-0.06
-0.06
-0.035
-0.035
-0.045
-0.07
-0.065
-0.05
-0.04
-0.04
-0.04
-0.06
-0.055
-0.06
-0.04
-0.04
-0.04
-0.055
-0.065
-0.055
-0.035
-0.035
-0.045
-0.055
-0.05
-0.045
-0.035
-0.03
-0.04
-0.05
-0.05
-0.045
-0.025
-0.03
-0.03
-0.045
-0.055
-0.055
-0.02
-0.025
-0.03
-0.05
-0.065
-0.035
-0.02
-0.03
-0.03
-0.035
-0.04
-0.035
-0.03
-0.03
-0.055
-0.055
-0.065
-0.04
-0.015
-0.03
-0.03
-0.035
-0.045
-0.035
-0.025
-0.01
-0.025
-0.04
-0.035
-0.025
-0.015
-0.025
-0.02
-0.03
-0.035
-0.025
-0.015
0.005
-0.015
-0.03
-0.03
-0.02
-0.01
0
-0.01
-0.02
-0.025
-0.01
0
0.005
-0.005
-0.025
-0.03
-0.01
0.005
-0.015
-0.01
-0.025
-0.02
-0.015
-0.015
0.005
0.005
-0.005
-0.005
0.015
0.005
0.03
0
0
-0.005
-0.005
0.01
0.015
0
0.01
0.025
0.04
0.075
0.07
0.07
0.07
0.07
0.065
0.085
0.08
0.075
0.045
0.02
0.03
0.035
0.035
0.035
0
-0.005
0
0.02
0.03
0.02
0.01
0.005
0.015
0.03
0.04
0.035
-0.005
0.015
0.04
0.05
0.055
0.05
0.045
0.04
0.05
0.09
0.105
0.11
0.135
0.155
0.21
0.245
0.305
0.405
0.5
0.63
0.77
0.925
1.05
1.16
1.27
1.375
1.465
1.465
1.37
1.2
0.985
0.78
0.615
0.475
0.345
0.24
0.165
0.155
0.15
0.16
0.15
0.11
0.07
0.055
0.04
0.045
0.04
0.02
0
0.01
-0.01
0
0.005
-0.01
-0.005
-0.02
-0.01
0.005
-0.01
-0.01
-0.015
-0.02
-0.03
0.01
0.015
0
-0.005
-0.02
0
0.01
0.02
0.005
-0.015
-0.01
0.01
0.03
0.025
0.03
0.01
0.015
0.015
0.03
0.05
0.045
0.035
0.045
0.055
0.08
0.07
0.06
0.06
0.055
0.095
0.11
0.125
0.1
0.105
0.115
0.13
0.145
0.17
0.16
0.175
0.175
0.195
0.22
0.23
0.23
0.23
0.23
0.255
0.275
0.29
0.295
0.285
0.28
0.31
0.33
0.34
0.335
0.35
0.355
0.355
0.375
0.375
0.36
0.34
0.33
0.335
0.335
0.325
0.31
0.27
0.24
0.235
0.23
0.195
0.18
0.145
0.11
0.115
0.11
0.11
0.075
0.05
0.02
0.02
0.025
0.01
0
-0.02
-0.025
-0.005
-0.005
-0.005
-0.01
-0.035
-0.025
-0.015
-0.015
-0.005
-0.01
-0.035
-0.035
-0.02
-0.015
-0.01
-0.02
-0.04
-0.045
-0.045
-0.025
-0.015
-0.03
-0.045
-0.055
-0.035
-0.025
-0.03
-0.03
-0.045
-0.06
-0.045
-0.02
-0.04
-0.03
-0.04
-0.05
-0.035
-0.015
-0.015
-0.03
-0.04
-0.045
-0.04
-0.03
-0.015
-0.04
-0.035
-0.04
-0.035
-0.03
-0.03
-0.04
-0.05
-0.055
-0.045
-0.025
-0.03
-0.035
-0.05
-0.055
-0.065
-0.04
-0.035
-0.05
-0.06
-0.06
-0.055
-0.04
-0.035
-0.06
-0.05
-0.055
-0.065
-0.03
-0.04
-0.05
-0.065
-0.055
-0.04
-0.02
-0.03
-0.04
-0.05
-0.06
-0.075
-0.05
-0.04
-0.035
-0.05
-0.065
-0.04
-0.045
-0.02
-0.03
-0.05
-0.05
-0.05
-0.025
-0.025
-0.025
-0.045
-0.045
-0.04
-0.025
-0.025
-0.035
-0.05
-0.055
-0.04
-0.025
-0.015
-0.015
-0.04
-0.045
-0.04
-0.025
-0.015
-0.03
-0.06
-0.065
-0.04
-0.02
-0.015
-0.02
-0.035
-0.04
-0.03
-0.025
-0.015
-0.02
-0.035
-0.035
-0.005
-0.005
-0.025
-0.04
-0.04
-0.025
-0.015
-0.015
-0.015
-0.035
-0.03
-0.03
-0.015
-0.01
-0.005
-0.025
-0.03
-0.03
-0.02
-0.02
-0.03
-0.035
-0.035
-0.04
-0.025
-0.02
-0.02
-0.035
-0.025
-0.025
-0.005
-0.01
-0.015
-0.025
-0.025
-0.015
-0.005
-0.005
-0.005
-0.015
-0.03
-0.01
-0.01
-0.01
-0.02
-0.02
-0.02
-0.01
0.015
0.02
0
-0.01
-0.015
0
0.01
0.005
0.005
-0.015
-0.015
0
0.01
0.015
0
-0.005
-0.005
0
0.005
0.01
-0.01
-0.015
-0.02
0.005
0.005
0.015
0.025
0.01
-0.02
0.015
0.03
0.03
0.005
0.005
0.005
0.005
0.025
0.02
0.02
0
0.01
-0.005
0.02
0.015
-0.01
-0.01
-0.01
0.025
0.035
0.065
0.06
0.055
0.06
0.065
0.08
0.08
0.065
0.06
0.05
0.05
0.05
0.04
0.03
0.025
0.005
0.015
0.025
0.015
0.005
0
-0.02
0.005
0.02
0.015
0.015
0.005
-0.005
0.01
0.01
0.03
0.03
0.01
0.005
0.01
0.025
0.055
0.025
0.02
0.035
0.05
0.065
0.1
0.115
0.14
0.145
0.195
0.265
0.36
0.455
0.54
0.66
0.795
0.935
1.05
1.145
1.235
1.345
1.41
1.41
1.335
1.18
0.99
0.79
0.625
0.475
0.335
0.22
0.14
0.115
0.12
0.12
0.12
0.1
0.075
0.065
0.045
0.045
0.03
0.015
-0.01
-0.005
-0.005
0.005
-0.005
-0.015
-0.025
-0.035
-0.035
-0.015
-0.01
-0.02
-0.03
-0.035
-0.025
-0.01
-0.015
-0.015
-0.03
-0.045
-0.045
-0.015
-0.02
-0.03
-0.035
-0.03
-0.04
-0.005
-0.01
-0.035
-0.015
-0.03
-0.025
-0.01
0
-0.01
-0.01
0.005
0.005
0.005
0.025
0.015
0.005
0
0.01
0.02
0.045
0.04
0.03
0.035
0.04
0.06
0.075
0.075
0.06
0.055
0.075
0.115
0.125
0.11
0.105
0.13
0.145
0.17
0.185
0.185
0.19
0.185
0.215
0.23
0.245
0.25
0.235
0.24
0.265
0.28
0.305
0.285
0.3
0.31
0.315
0.34
0.355
0.345
0.33
0.315
0.325
0.335
0.315
0.3
0.28
0.25
0.26
0.255
0.24
0.21
0.18
0.165
0.145
0.135
0.135
0.095
0.07
0.055
0.04
0.05
0.045
0.03
0.005
0
0.01
0.005
0.015
-0.005
-0.035
-0.045
-0.04
-0.025
-0.01
-0.035
-0.07
-0.065
-0.04
-0.04
-0.04
-0.04
-0.06
-0.055
-0.065
-0.03
-0.02
-0.045
-0.05
-0.045
-0.05
-0.02
-0.02
-0.03
-0.05
-0.05
-0.045
-0.05
-0.04
-0.03
-0.045
-0.055
-0.055
-0.025
-0.03
-0.04
-0.055
-0.05
-0.04
-0.04
-0.03
-0.045
-0.04
-0.05
-0.035
-0.025
-0.025
-0.03
-0.06
-0.07
-0.05
-0.02
-0.02
-0.025
-0.04
-0.045
-0.03
-0.005
0
-0.01
-0.02
-0.04
-0.02
-0.005
-0.005
-0.015
-0.04
-0.045
-0.035
-0.025
0
-0.015
-0.035
-0.05
-0.03
-0.015
-0.01
-0.015
-0.035
-0.035
-0.035
-0.015
-0.02
-0.015
-0.03
-0.05
-0.035
-0.01
0
-0.02
-0.03
-0.045
-0.02
-0.01
-0.005
-0.015
-0.035
-0.035
-0.03
-0.005
-0.015
-0.01
-0.04
-0.04
-0.045
-0.05
-0.035
-0.035
-0.065
-0.055
-0.055
-0.03
-0.02
-0.04
-0.045
-0.04
-0.04
-0.035
-0.025
-0.035
-0.04
-0.05
-0.04
-0.025
-0.03
-0.025
-0.04
-0.065
-0.05
-0.02
-0.015
-0.03
-0.035
-0.05
-0.035
-0.02
-0.025
-0.035
-0.06
-0.065
-0.045
-0.025
-0.03
-0.035
-0.06
-0.055
-0.04
-0.03
-0.035
-0.035
-0.035
-0.045
-0.05
-0.03
-0.015
-0.04
-0.06
-0.055
-0.04
-0.035
-0.035
-0.045
-0.05
-0.05
-0.04
-0.02
-0.03
-0.04
-0.045
-0.05
-0.03
-0.02
-0.02
-0.035
-0.04
-0.045
-0.035
-0.025
-0.02
-0.025
-0.035
-0.05
-0.04
-0.045
-0.02
-0.025
-0.03
-0.045
-0.04
-0.015
-0.01
-0.025
-0.035
-0.04
-0.035
-0.01
-0.005
-0.02
-0.04
-0.035
-0.015
-0.02
-0.025
-0.01
-0.045
-0.035
-0.03
-0.01
-0.02
-0.015
-0.025
-0.02
-0.02
-0.005
0.005
-0.02
-0.03
-0.01
0.005
0.01
0.01
0.01
-0.015
-0.02
-0.02
-0.005
-0.01
0.01
0.005
0.03
0.04
0.055
0.075
0.075
0.06
0.05
0.055
0.075
0.07
0.06
0.05
0.03
0.035
0.04
0.035
0.02
0
-0.005
0.005
0.02
0.015
0.01
0.01
0.005
0.01
0.025
0.02
0.02
-0.005
-0.01
0.015
0.03
0.035
0.02
0.02
0.03
0.05
0.06
0.075
0.075
0.075
0.095
0.135
0.17
0.2
0.22
0.295
0.405
0.54
0.69
0.835
0.97
1.065
1.205
1.36
1.48
1.515
1.455
1.315
1.11
0.875
0.7
0.515
0.335
0.175
0.09
0.08
0.105
0.115
0.105
0.075
0.045
0.035
0.035
0.025
0.01
-0.02
-0.02
-0.02
-0.015
-0.005
-0.02
-0.035
-0.045
-0.04
-0.025
-0.03
-0.03
-0.045
-0.05
-0.05
-0.05
-0.045
-0.035
-0.06
-0.065
-0.06
-0.04
-0.03
-0.045
-0.045
-0.04
-0.03
-0.015
-0.015
-0.025
-0.025
-0.03
-0.025
-0.005
0.01
0
-0.015
-0.005
-0.005
0.02
0.01
0.015
0
0.01
0.025
0.055
0.06
0.055
0.055
0.055
0.06
0.09
0.09
0.095
0.1
0.085
0.12
0.145
0.15
0.145
0.15
0.15
0.18
0.2
0.21
0.22
0.22
0.22
0.24
0.255
0.285
0.275
0.265
0.275
0.29
0.29
0.31
0.32
0.3
0.29
0.315
0.305
0.32
0.29
0.28
0.25
0.245
0.25
0.225
0.21
0.175
0.155
0.145
0.13
0.12
0.095
0.065
0.045
0.045
0.04
0.03
0.015
-0.01
-0.03
-0.02
-0.015
-0.02
-0.055
-0.06
-0.065
-0.08
-0.06
-0.045
-0.065
-0.08
-0.085
-0.08
-0.08
-0.085
-0.085
-0.08
-0.095
-0.08
-0.075
-0.075
-0.075
-0.09
-0.1
-0.085
-0.075
-0.07
-0.08
-0.095
-0.09
-0.085
-0.065
-0.065
-0.07
-0.085
-0.09
-0.08
-0.055
-0.075
-0.065
-0.09
-0.085
-0.075
-0.055
-0.055
-0.065
-0.085
-0.075
-0.065
-0.06
-0.055
-0.065
-0.075
-0.085
-0.065
-0.05
-0.065
-0.06
-0.07
-0.075
-0.075
-0.055
-0.05
-0.065
-0.075
-0.075
-0.07
-0.055
-0.06
-0.06
-0.075
-0.085
-0.08
-0.065
-0.05
-0.065
-0.08
-0.09
-0.075
-0.07
-0.04
-0.07
-0.075
-0.085
-0.075
-0.06
-0.045
-0.06
-0.09
-0.09
-0.075
-0.055
-0.055
-0.06
-0.07
-0.065
-0.06
-0.07
-0.06
-0.055
-0.07
-0.085
-0.075
-0.065
-0.055
-0.075
-0.085
-0.085
-0.08
-0.065
-0.065
-0.075
-0.085
-0.08
-0.07
-0.07
-0.08
-0.07
-0.08
-0.095
-0.07
-0.055
-0.055
-0.065
-0.085
-0.095
-0.075
-0.075
-0.065
-0.075
-0.08
-0.085
-0.07
-0.06
-0.055
-0.07
-0.095
-0.08
-0.075
-0.055
-0.055
-0.075
-0.075
-0.075
-0.075
-0.065
-0.065
-0.07
-0.095
-0.09
-0.075
-0.065
-0.075
-0.075
-0.085
-0.09
-0.075
-0.06
-0.055
-0.055
-0.075
-0.07
-0.065
-0.055
-0.065
-0.045
-0.065
-0.075
-0.065
-0.045
-0.04
-0.045
-0.07
-0.065
-0.06
-0.035
-0.035
-0.045
-0.065
-0.08
-0.065
-0.055
-0.06
-0.075
-0.065
-0.08
-0.06
-0.05
-0.035
-0.05
-0.065
-0.065
-0.07
-0.06
-0.045
-0.055
-0.06
-0.05
-0.06
-0.04
-0.04
-0.05
-0.08
-0.075
-0.085
-0.04
-0.04
-0.05
-0.06
-0.05
-0.04
-0.03
-0.015
-0.02
-0.035
-0.045
-0.03
-0.035
-0.035
-0.045
-0.055
-0.065
-0.045
-0.025
-0.01
0.01
0
0.01
0.015
0.025
0.03
0.01
0.005
0.01
0.015
0.02
0.015
-0.005
-0.02
-0.035
-0.025
-0.035
-0.03
-0.05
-0.055
-0.06
-0.05
-0.05
-0.035
-0.04
-0.06
-0.06
-0.05
-0.03
-0.035
-0.055
-0.055
-0.065
-0.055
-0.035
-0.02
-0.01
-0.01
-0.025
0.02
0.055
0.095
0.1
0.13
0.19
0.29
0.405
0.51
0.635
0.75
0.875
1
1.145
1.27
1.35
1.335
1.24
1.095
0.915
0.7
0.51
0.335
0.195
0.105
0.085
0.08
0.055
0.045
0.03
0.005
-0.015
-0.03
-0.055
-0.07
-0.08
-0.075
-0.07
-0.065
-0.075
-0.11
-0.1
-0.095
-0.085
-0.085
-0.095
-0.11
-0.11
-0.105
-0.1
-0.09
-0.1
-0.115
-0.115
-0.115
-0.1
-0.1
-0.09
-0.11
-0.11
-0.1
-0.1
-0.09
-0.08
-0.095
-0.09
-0.085
-0.06
-0.055
-0.065
-0.07
-0.065
-0.06
-0.035
-0.03
-0.025
-0.04
-0.045
-0.025
-0.005
0.01
0.005
-0.005
-0.005
0.015
0.035
0.05
0.05
0.05
0.06
0.06
0.1
0.12
0.125
0.12
0.135
0.155
0.19
0.19
0.195
0.195
0.195
0.22
0.245
0.25
0.25
0.245
0.26
0.275
0.295
0.3
0.29
0.27
0.26
0.265
0.26
0.25
0.22
0.175
0.16
0.15
0.145
0.12
0.09
0.055
0.025
0.01
0.01
-0.005
-0.01
-0.035
-0.055
-0.045
-0.05
-0.05
-0.07
-0.1
-0.1
-0.1
-0.08
-0.085
-0.095
-0.11
-0.12
-0.115
-0.11
-0.115
-0.11
-0.12
-0.14
-0.125
-0.105
-0.095
-0.105
-0.12
-0.135
-0.115
-0.095
-0.095
-0.105
-0.11
-0.12
-0.1
-0.095
-0.085
-0.105
-0.11
-0.12
-0.1
-0.09
-0.09
-0.095
-0.115
-0.115
-0.1
-0.1
-0.095
-0.105
-0.115
-0.12
-0.12
-0.105
-0.1
-0.105
-0.105
-0.125
-0.11
-0.095
-0.095
-0.11
-0.125
-0.105
-0.105
-0.09
-0.09
-0.095
-0.115
-0.12
-0.115
-0.1
-0.105
-0.095
-0.11
-0.125
-0.11
-0.095
-0.1
-0.105
-0.11
-0.12
-0.11
-0.115
-0.11
-0.11
-0.13
-0.13
-0.12
-0.105
-0.115
-0.11
-0.125
-0.135
-0.14
-0.12
-0.12
-0.13
-0.14
-0.15
-0.13
-0.125
-0.115
-0.13
-0.14
-0.13
-0.125
-0.11
-0.125
-0.12
-0.125
-0.14
-0.125
-0.115
-0.12
-0.12
-0.135
-0.125
-0.12
-0.105
-0.105
-0.125
-0.135
-0.125
-0.135
-0.115
-0.11
-0.135
-0.14
-0.15
-0.13
-0.12
-0.11
-0.125
-0.14
-0.14
-0.135
-0.12
-0.115
-0.12
-0.135
-0.155
-0.145
-0.105
-0.11
-0.13
-0.145
-0.14
-0.13
-0.12
-0.12
-0.125
-0.145
-0.14
-0.135
-0.115
-0.115
-0.12
-0.135
-0.125
-0.125
-0.115
-0.115
-0.12
-0.14
-0.14
-0.13
-0.13
-0.11
-0.125
-0.13
-0.14
-0.13
-0.11
-0.11
-0.12
-0.14
-0.14
-0.13
-0.11
-0.105
-0.11
-0.13
-0.16
-0.135
-0.125
-0.1
-0.115
-0.145
-0.13
-0.12
-0.1
-0.105
-0.1
-0.12
-0.125
-0.12
-0.1
-0.09
-0.1
-0.115
-0.13
-0.12
-0.095
-0.1
-0.115
-0.125
-0.11
-0.1
-0.085
-0.095
-0.09
-0.095
-0.1
-0.095
-0.095
-0.095
-0.095
-0.095
-0.085
-0.06
-0.045
-0.03
-0.02
-0.025
-0.025
-0.02
-0.01
-0.01
-0.01
-0.045
-0.05
-0.035
-0.035
-0.035
-0.05
-0.065
-0.09
-0.075
-0.045
-0.045
-0.055
-0.075
-0.065
-0.07
-0.06
-0.04
-0.055
-0.055
-0.06
-0.06
-0.035
-0.04
-0.045
-0.045
-0.045
-0.03
0
0.005
0.025
0.03
0.07
0.115
0.19
0.265
0.395
0.52
0.665
0.84
0.99
1.135
1.265
1.37
1.43
1.4
1.275
1.06
0.815
0.6
0.4
0.23
0.105
0.03
0.005
-0.005
-0.01
0
-0.005
-0.015
-0.045
-0.075
-0.095
-0.1
-0.095
-0.095
-0.095
-0.125
-0.125
-0.125
-0.11
-0.105
-0.115
-0.135
-0.135
-0.125
-0.11
-0.115
-0.115
-0.135
-0.14
-0.13
-0.115
-0.125
-0.115
-0.135
-0.125
-0.12
-0.105
-0.105
-0.11
-0.105
-0.11
-0.095
-0.085
-0.085
-0.08
-0.08
-0.09
-0.075
-0.06
-0.05
-0.05
-0.06
-0.075
-0.045
-0.05
-0.035
-0.045
-0.045
-0.045
-0.02
0
0.005
0.01
0.005
0.005
0.03
0.055
0.075
0.07
0.075
0.08
0.1
0.13
0.14
0.14
0.14
0.155
0.175
0.2
0.21
0.205
0.195
0.19
0.21
0.24
0.255
0.245
0.245
0.23
0.24
0.25
0.24
0.225
0.195
0.175
0.16
0.14
0.13
0.115
0.08
0.055
0.04
0.045
0.03
0.005
-0.02
-0.045
-0.045
-0.045
-0.06
-0.08
-0.085
-0.09
-0.08
-0.09
-0.09
-0.105
-0.105
-0.115
-0.115
-0.1
-0.095
-0.1
-0.12
-0.12
-0.12
-0.11
-0.1
-0.115
-0.13
-0.13
-0.125
-0.11
-0.12
-0.12
-0.12
-0.125
-0.115
-0.11
-0.095
-0.1
-0.115
-0.135
-0.125
-0.095
-0.1
-0.1
-0.12
-0.12
-0.11
-0.08
-0.085
-0.09
-0.105
-0.12
-0.1
-0.095
-0.085
-0.1
-0.105
-0.12
-0.115
-0.11
-0.11
-0.11
-0.12
-0.125
-0.115
-0.11
-0.11
-0.13
-0.12
-0.135
-0.115
-0.11
-0.105
-0.105
-0.135
-0.145
-0.12
-0.11
-0.115
-0.13
-0.15
-0.14
-0.12
-0.12
-0.1
-0.12
-0.13
-0.135
-0.125
-0.11
-0.11
-0.13
-0.135
-0.13
-0.12
-0.11
-0.1
-0.11
-0.13
-0.135
-0.125
-0.12
-0.11
-0.11
-0.125
-0.135
-0.125
-0.105
-0.11
-0.11
-0.135
-0.125
-0.125
-0.12
-0.12
-0.11
-0.125
-0.145
-0.105
-0.105
-0.115
-0.12
-0.125
-0.12
-0.11
-0.11
-0.095
-0.11
-0.125
-0.125
-0.115
-0.115
-0.1
-0.1
-0.13
-0.14
-0.125
-0.105
-0.105
-0.1
-0.105
-0.115
-0.11
-0.1
-0.105
-0.11
-0.125
-0.12
-0.105
-0.1
-0.1
-0.1
-0.12
-0.135
-0.11
-0.11
-0.1
-0.115
-0.11
-0.115
-0.105
-0.08
-0.08
-0.1
-0.1
-0.12
-0.095
-0.085
-0.09
-0.095
-0.11
-0.1
-0.11
-0.09
-0.09
-0.095
-0.105
-0.11
-0.095
-0.095
-0.095
-0.09
-0.105
-0.105
-0.095
-0.075
-0.08
-0.08
-0.105
-0.095
-0.08
-0.085
-0.075
-0.07
-0.09
-0.09
-0.075
-0.065
-0.065
-0.08
-0.09
-0.08
-0.075
-0.065
-0.055
-0.065
-0.08
-0.07
-0.08
-0.05
-0.055
-0.06
-0.065
-0.08
-0.065
-0.04
-0.045
-0.045
-0.065
-0.06
-0.06
-0.055
-0.06
-0.06
-0.065
-0.06
-0.05
-0.02
0.005
-0.005
-0.01
-0.02
-0.005
-0.01
0
-0.005
-0.025
-0.04
-0.03
-0.025
-0.025
-0.04
-0.065
-0.08
-0.09
-0.06
-0.06
-0.06
-0.07
-0.07
-0.065
-0.04
-0.035
-0.04
-0.05
-0.065
-0.055
-0.03
-0.025
-0.025
-0.04
-0.03
-0.02
0
0.015
0.035
0.035
0.065
0.115
0.165
0.25
0.335
0.43
0.545
0.67
0.82
0.955
1.05
1.13
1.24
1.325
1.315
1.21
1.05
0.85
0.65
0.475
0.34
0.215
0.125
0.055
0.045
0.05
0.05
0.04
0.015
-0.03
-0.04
-0.055
-0.06
-0.07
-0.1
-0.1
-0.13
-0.135
-0.11
-0.125
-0.135
-0.145
-0.17
-0.16
-0.14
-0.13
-0.14
-0.15
-0.155
-0.135
-0.13
-0.14
-0.14
-0.14
-0.135
-0.125
-0.115
-0.1
-0.11
-0.135
-0.125
-0.105
-0.11
-0.1
-0.095
-0.105
-0.1
-0.095
-0.07
-0.055
-0.07
-0.095
-0.075
-0.06
-0.05
-0.04
-0.04
-0.055
-0.035
-0.035
0
0.02
0.02
0.01
0.01
0.035
0.055
0.065
0.06
0.07
0.065
0.09
0.12
0.13
0.125
0.125
0.125
0.135
0.16
0.185
0.185
0.175
0.185
0.195
0.24
0.255
0.255
0.22
0.23
0.23
0.25
0.245
0.225
0.21
0.19
0.195
0.18
0.17
0.14
0.105
0.085
0.075
0.065
0.045
0.03
-0.01
-0.035
-0.04
-0.04
-0.04
-0.06
-0.085
-0.095
-0.1
-0.1
-0.1
-0.115
-0.135
-0.145
-0.14
-0.14
-0.135
-0.14
-0.145
-0.16
-0.16
-0.145
-0.14
-0.155
-0.165
-0.17
-0.165
-0.145
-0.16
-0.155
-0.165
-0.185
-0.17
-0.16
-0.14
-0.15
-0.165
-0.175
-0.175
-0.165
-0.145
-0.155
-0.165
-0.185
-0.17
-0.155
-0.145
-0.155
-0.17
-0.165
-0.16
-0.145
-0.135
-0.145
-0.165
-0.17
-0.15
-0.14
-0.125
-0.14
-0.155
-0.155
-0.14
-0.13
-0.125
-0.135
-0.16
-0.155
-0.155
-0.135
-0.135
-0.13
-0.15
-0.16
-0.155
-0.145
-0.125
-0.135
-0.16
-0.16
-0.145
-0.135
-0.14
-0.15
-0.165
-0.165
-0.175
-0.145
-0.15
-0.145
-0.175
-0.17
-0.16
-0.15
-0.14
-0.16
-0.18
-0.175
-0.165
-0.15
-0.145
-0.165
-0.175
-0.18
-0.175
-0.16
-0.155
-0.18
-0.19
-0.19
-0.175
-0.16
-0.155
-0.165
-0.18
-0.185
-0.175
-0.165
-0.16
-0.17
-0.18
-0.19
-0.175
-0.175
-0.155
-0.175
-0.185
-0.19
-0.16
-0.15
-0.16
-0.165
-0.17
-0.175
-0.17
-0.165
-0.155
-0.175
-0.18
-0.185
-0.155
-0.145
-0.145
-0.15
-0.165
-0.175
-0.155
-0.15
-0.145
-0.14
-0.155
-0.16
-0.14
-0.135
-0.135
-0.14
-0.17
-0.15
-0.14
-0.135
-0.13
-0.13
-0.135
-0.16
-0.15
-0.125
-0.125
-0.135
-0.15
-0.15
-0.135
-0.12
-0.125
-0.12
-0.155
-0.145
-0.145
-0.125
-0.135
-0.13
-0.15
-0.145
-0.135
-0.12
-0.125
-0.12
-0.145
-0.145
-0.125
-0.115
-0.11
-0.13
-0.14
-0.145
-0.145
-0.125
-0.12
-0.125
-0.135
-0.135
-0.125
-0.12
-0.105
-0.115
-0.125
-0.135
-0.135
-0.105
-0.1
-0.115
-0.125
-0.13
-0.13
-0.12
-0.11
-0.125
-0.12
-0.12
-0.11
-0.105
-0.1
-0.095
-0.11
-0.105
-0.12
-0.095
-0.085
-0.095
-0.1
-0.11
-0.1
-0.095
-0.095
-0.1
-0.12
-0.13
-0.135
-0.095
-0.1
-0.085
-0.085
-0.075
-0.06
-0.03
-0.025
-0.025
-0.045
-0.045
-0.035
-0.015
-0.025
-0.035
-0.045
-0.065
-0.06
-0.055
-0.055
-0.07
-0.095
-0.095
-0.09
-0.09
-0.075
-0.08
-0.095
-0.115
-0.11
-0.075
-0.075
-0.08
-0.105
-0.105
-0.085
-0.08
-0.075
-0.08
-0.095
-0.085
-0.055
-0.05
-0.03
-0.03
-0.04
-0.03
0.005
0.035
0.08
0.1
0.125
0.21
0.33
0.455
0.575
0.695
0.815
0.91
1.02
1.15
1.245
1.275
1.205
1.08
0.93
0.75
0.565
0.405
0.25
0.125
0.05
0.01
0
0.01
-0.015
-0.02
-0.03
-0.04
-0.06
-0.085
-0.105
-0.125
-0.125
-0.115
-0.115
-0.135
-0.16
-0.155
-0.15
-0.13
-0.14
-0.16
-0.165
-0.17
-0.16
-0.15
-0.145
-0.155
-0.165
-0.18
-0.165
-0.15
-0.15
-0.15
-0.165
-0.17
-0.155
-0.135
-0.145
-0.145
-0.16
-0.16
-0.16
-0.14
-0.13
-0.13
-0.14
-0.15
-0.13
-0.125
-0.105
-0.12
-0.135
-0.15
-0.12
-0.105
-0.11
-0.085
-0.105
-0.11
-0.085
-0.07
-0.06
-0.07
-0.07
-0.09
-0.06
-0.045
-0.03
-0.015
-0.035
-0.02
-0.005
0.01
0.03
0.035
0.035
0.04
0.055
0.08
0.09
0.105
0.115
0.095
0.115
0.145
0.165
0.165
0.155
0.155
0.165
0.18
0.21
0.19
0.18
0.185
0.17
0.19
0.175
0.17
0.15
0.125
0.105
0.105
0.085
0.06
0.025
0.015
-0.015
-0.01
-0.01
-0.04
-0.075
-0.1
-0.085
-0.09
-0.095
-0.11
-0.145
-0.145
-0.16
-0.15
-0.165
-0.16
-0.18
-0.195
-0.185
-0.175
-0.18
-0.19
-0.195
-0.215
-0.2
-0.205
-0.185
-0.195
-0.215
-0.215
-0.205
-0.21
-0.195
-0.2
-0.225
-0.21
-0.2
-0.195
-0.19
-0.21
-0.205
-0.21
-0.195
-0.185
-0.185
-0.19
-0.205
-0.215
-0.2
-0.2
-0.2
-0.21
-0.215
-0.21
-0.2
-0.18
-0.185
-0.19
-0.2
-0.21
-0.195
-0.2
-0.185
-0.185
-0.205
-0.205
-0.195
-0.18
-0.18
-0.195
-0.205
-0.19
-0.175
-0.165
-0.16
-0.17
-0.195
-0.21
-0.2
-0.155
-0.16
-0.165
-0.185
-0.18
-0.175
-0.17
-0.17
-0.175
-0.185
-0.18
-0.175
-0.175
-0.16
-0.18
-0.195
-0.19
-0.18
-0.16
-0.165
-0.175
-0.175
-0.2
-0.185
-0.165
-0.16
-0.17
-0.18
-0.18
-0.18
-0.16
-0.17
-0.175
-0.18
-0.195
-0.185
-0.17
-0.16
-0.16
-0.175
-0.185
-0.175
-0.15
-0.145
-0.165
-0.18
-0.18
-0.185
-0.175
-0.155
-0.17
-0.19
-0.2
-0.19
-0.18
-0.175
-0.185
-0.19
-0.195
-0.19
-0.175
-0.175
-0.19
-0.19
-0.2
-0.2
-0.195
-0.165
-0.185
-0.19
-0.19
-0.18
-0.17
-0.18
-0.175
-0.185
-0.18
-0.19
-0.165
-0.165
-0.16
-0.2
-0.195
-0.175
-0.165
-0.15
-0.16
-0.17
-0.175
-0.16
-0.16
-0.155
-0.17
-0.185
-0.18
-0.17
-0.15
-0.155
-0.15
-0.165
-0.18
-0.185
-0.15
-0.14
-0.16
-0.17
-0.17
-0.17
-0.15
-0.155
-0.17
-0.185
-0.17
-0.165
-0.155
-0.155
-0.17
-0.18
-0.19
-0.175
-0.16
-0.16
-0.16
-0.175
-0.19
-0.17
-0.165
-0.155
-0.17
-0.185
-0.185
-0.185
-0.165
-0.155
-0.16
-0.18
-0.185
-0.17
-0.165
-0.15
-0.165
-0.175
-0.175
-0.18
-0.165
-0.15
-0.165
-0.18
-0.175
-0.17
-0.155
-0.16
-0.15
-0.175
-0.18
-0.16
-0.165
-0.15
-0.155
-0.17
-0.185
-0.175
-0.155
-0.17
-0.19
-0.195
-0.185
-0.175
-0.135
-0.13
-0.125
-0.135
-0.13
-0.12
-0.095
-0.095
-0.105
-0.13
-0.115
-0.12
-0.105
-0.115
-0.13
-0.155
-0.165
-0.16
-0.15
-0.165
-0.185
-0.185
-0.175
-0.17
-0.16
-0.15
-0.16
-0.175
-0.185
-0.17
-0.17
-0.16
-0.16
-0.175
-0.17
-0.175
-0.125
-0.12
-0.125
-0.13
-0.13
-0.095
-0.065
-0.04
-0.03
-0.02
0.01
0.09
0.185
0.31
0.42
0.54
0.685
0.835
0.96
1.09
1.205
1.285
1.34
1.3
1.19
0.98
0.77
0.54
0.345
0.2
0.06
-0.045
-0.095
-0.105
-0.105
-0.09
-0.095
-0.105
-0.13
-0.175
-0.17
-0.175
-0.175
-0.175
-0.185
-0.195
-0.22
-0.215
-0.215
-0.215
-0.215
-0.245
-0.25
-0.245
-0.235
-0.22
-0.245
-0.25
-0.255
-0.265
-0.245
-0.235
-0.245
-0.265
-0.26
-0.25
-0.25
-0.235
-0.255
-0.25
-0.26
-0.235
-0.22
-0.21
-0.23
-0.235
-0.23
-0.23
-0.215
-0.205
-0.195
-0.205
-0.195
-0.195
-0.175
-0.165
-0.17
-0.165
-0.165
-0.17
-0.145
-0.13
-0.14
-0.125
-0.125
-0.125
-0.085
-0.065
-0.075
-0.07
-0.065
-0.04
-0.015
-0.015
0
-0.005
0.005
0.025
0.055
0.07
0.065
0.06
0.05
0.08
0.105
0.125
0.13
0.125
0.13
0.14
0.15
0.165
0.16
0.16
0.155
0.165
0.16
0.145
0.145
0.125
0.105
0.085
0.08
0.065
0.05
0.015
-0.005
-0.015
-0.04
-0.04
-0.065
-0.1
-0.115
-0.115
-0.125
-0.12
-0.15
-0.18
-0.18
-0.175
-0.19
-0.18
-0.19
-0.21
-0.205
-0.2
-0.19
-0.195
-0.195
-0.225
-0.225
-0.205
-0.205
-0.19
-0.21
-0.23
-0.235
-0.22
-0.205
-0.195
-0.215
-0.215
-0.225
-0.205
-0.195
-0.2
-0.195
-0.22
-0.23
-0.22
-0.195
-0.18
-0.195
-0.205
-0.21
-0.2
-0.185
-0.185
-0.19
-0.215
-0.215
-0.19
-0.18
-0.185
-0.185
-0.205
-0.215
-0.2
-0.18
-0.17
-0.18
-0.205
-0.21
-0.205
-0.18
-0.18
-0.18
-0.195
-0.2
-0.19
-0.175
-0.175
-0.19
-0.2
-0.21
-0.185
-0.175
-0.17
-0.18
-0.195
-0.2
-0.19
-0.175
-0.175
-0.195
-0.2
-0.215
-0.2
-0.18
-0.18
-0.19
-0.205
-0.21
-0.2
-0.175
-0.185
-0.205
-0.21
-0.215
-0.205
-0.195
-0.195
-0.2
-0.215
-0.21
-0.2
-0.195
-0.19
-0.18
-0.2
-0.215
-0.205
-0.185
-0.21
-0.205
-0.22
-0.215
-0.21
-0.21
-0.205
-0.215
-0.225
-0.225
-0.22
-0.21
-0.225
-0.22
-0.235
-0.235
-0.24
-0.22
-0.215
-0.22
-0.23
-0.245
-0.23
-0.21
-0.205
-0.215
-0.23
-0.225
-0.205
-0.19
-0.19
-0.2
-0.205
-0.22
-0.2
-0.185
-0.19
-0.195
-0.21
-0.225
-0.205
-0.185
-0.185
-0.195
-0.205
-0.21
-0.2
-0.185
-0.195
-0.19
-0.21
-0.21
-0.21
-0.2
-0.185
-0.185
-0.205
-0.22
-0.21
-0.18
-0.18
-0.19
-0.205
-0.215
-0.21
-0.195
-0.185
-0.2
-0.215
-0.235
-0.225
-0.19
-0.195
-0.2
-0.215
-0.225
-0.225
-0.21
-0.205
-0.215
-0.235
-0.24
-0.225
-0.195
-0.175
-0.2
-0.2
-0.21
-0.195
-0.175
-0.175
-0.2
-0.21
-0.2
-0.185
-0.185
-0.17
-0.185
-0.185
-0.2
-0.18
-0.165
-0.165
-0.18
-0.18
-0.21
-0.175
-0.16
-0.165
-0.17
-0.175
-0.18
-0.175
-0.165
-0.155
-0.16
-0.165
-0.17
-0.165
-0.145
-0.125
-0.15
-0.16
-0.17
-0.165
-0.165
-0.16
-0.175
-0.17
-0.165
-0.14
-0.115
-0.115
-0.115
-0.105
-0.12
-0.115
-0.1
-0.085
-0.11
-0.12
-0.13
-0.12
-0.13
-0.13
-0.145
-0.155
-0.185
-0.18
-0.17
-0.18
-0.16
-0.19
-0.18
-0.175
-0.155
-0.16
-0.155
-0.185
-0.185
-0.155
-0.15
-0.14
-0.155
-0.16
-0.15
-0.15
-0.11
-0.1
-0.09
-0.095
-0.065
-0.03
-0.005
0.035
0.075
0.165
0.28
0.405
0.555
0.7
0.835
0.945
1.045
1.18
1.285
1.32
1.24
1.11
0.915
0.72
0.535
0.36
0.195
0.075
-0.005
-0.035
-0.02
-0.025
-0.055
-0.08
-0.095
-0.105
-0.115
-0.115
-0.135
-0.16
-0.17
-0.175
-0.175
-0.165
-0.18
-0.195
-0.19
-0.2
-0.185
-0.185
-0.205
-0.205
-0.21
-0.19
-0.19
-0.18
-0.195
-0.2
-0.215
-0.19
-0.185
-0.175
-0.175
-0.195
-0.205
-0.19
-0.165
-0.17
-0.17
-0.185
-0.19
-0.165
-0.16
-0.145
-0.155
-0.17
-0.165
-0.145
-0.135
-0.12
-0.12
-0.135
-0.145
-0.14
-0.115
-0.1
-0.1
-0.115
-0.1
-0.08
-0.065
-0.045
-0.045
-0.04
-0.045
-0.03
0.01
0.025
0.025
0.02
0.04
0.055
0.08
0.085
0.085
0.07
0.085
0.115
0.13
0.15
0.16
0.15
0.145
0.16
0.175
0.19
0.175
0.165
0.16
0.145
0.15
0.14
0.1
0.075
0.055
0.03
0.04
0.01
-0.025
-0.05
-0.075
-0.095
-0.095
-0.1
-0.125
-0.165
-0.175
-0.185
-0.17
-0.19
-0.19
-0.225
-0.235
-0.225
-0.215
-0.21
-0.22
-0.25
-0.255
-0.235
-0.23
-0.22
-0.235
-0.26
-0.255
-0.255
-0.245
-0.245
-0.25
-0.27
-0.27
-0.26
-0.24
-0.245
-0.26
-0.27
-0.265
-0.26
-0.255
-0.245
-0.245
-0.265
-0.26
-0.245
-0.235
-0.235
-0.245
-0.26
-0.275
-0.24
-0.225
-0.215
-0.23
-0.245
-0.245
-0.245
-0.23
-0.22
-0.23
-0.24
-0.24
-0.245
-0.23
-0.22
-0.23
-0.25
-0.26
-0.24
-0.22
-0.235
-0.25
-0.26
-0.26
-0.245
-0.245
-0.23
-0.24
-0.245
-0.25
-0.25
-0.245
-0.235
-0.25
-0.27
-0.27
-0.255
-0.245
-0.24
-0.25
-0.265
-0.28
-0.275
-0.25
-0.25
-0.26
-0.265
-0.275
-0.27
-0.245
-0.25
-0.26
-0.26
-0.275
-0.265
-0.27
-0.24
-0.25
-0.255
-0.27
-0.26
-0.24
-0.245
-0.265
-0.27
-0.265
-0.26
-0.26
-0.255
-0.245
-0.275
-0.285
-0.265
-0.26
-0.25
-0.25
-0.27
-0.275
-0.26
-0.25
-0.26
-0.26
-0.27
-0.27
-0.26
-0.24
-0.24
-0.26
-0.275
-0.28
-0.255
-0.255
-0.25
-0.25
-0.26
-0.275
-0.27
-0.24
-0.255
-0.26
-0.27
-0.27
-0.27
-0.25
-0.25
-0.26
-0.265
-0.275
-0.26
-0.215
-0.23
-0.25
-0.275
-0.265
-0.25
-0.23
-0.23
-0.24
-0.26
-0.255
-0.245
-0.23
-0.235
-0.235
-0.255
-0.26
-0.245
-0.23
-0.235
-0.235
-0.255
-0.26
-0.24
-0.23
-0.235
-0.24
-0.255
-0.255
-0.25
-0.225
-0.23
-0.235
-0.245
-0.25
-0.24
-0.235
-0.23
-0.235
-0.245
-0.26
-0.25
-0.225
-0.23
-0.24
-0.26
-0.245
-0.23
-0.21
-0.215
-0.215
-0.225
-0.215
-0.22
-0.215
-0.2
-0.21
-0.215
-0.21
-0.2
-0.195
-0.175
-0.19
-0.215
-0.225
-0.205
-0.195
-0.2
-0.2
-0.195
-0.17
-0.165
-0.14
-0.13
-0.135
-0.15
-0.16
-0.15
-0.13
-0.135
-0.155
-0.175
-0.175
-0.2
-0.17
-0.16
-0.175
-0.2
-0.205
-0.205
-0.18
-0.19
-0.19
-0.2
-0.215
-0.19
-0.19
-0.185
-0.18
-0.18
-0.195
-0.175
-0.165
-0.16
-0.175
-0.18
-0.185
-0.16
-0.135
-0.12
-0.085
-0.085
-0.045
-0.01
0.06
0.16
0.275
0.39
0.555
0.72
0.875
1.015
1.135
1.255
1.34
1.34
1.24
1.035
0.765
0.53
0.315
0.145
0.015
-0.09
-0.145
-0.15
-0.125
-0.115
-0.11
-0.135
-0.145
-0.185
-0.18
-0.185
-0.18
-0.18
-0.22
-0.23
-0.235
-0.23
-0.23
-0.225
-0.235
-0.245
-0.245
-0.245
-0.225
-0.22
-0.23
-0.255
-0.265
-0.25
-0.23
-0.225
-0.235
-0.245
-0.25
-0.25
-0.225
-0.215
-0.23
-0.245
-0.26
-0.225
-0.23
-0.215
-0.215
-0.235
-0.235
-0.22
-0.205
-0.21
-0.205
-0.2
-0.19
-0.19
-0.17
-0.175
-0.155
-0.175
-0.17
-0.155
-0.13
-0.135
-0.12
-0.13
-0.14
-0.11
-0.075
-0.06
-0.055
-0.055
-0.04
-0.03
-0.01
0.01
0.01
0.01
0.01
0.035
0.065
0.075
0.065
0.06
0.075
0.1
0.105
0.135
0.125
0.12
0.115
0.13
0.14
0.115
0.095
0.065
0.055
0.065
0.045
0.025
0
-0.04
-0.065
-0.08
-0.09
-0.09
-0.105
-0.14
-0.155
-0.17
-0.17
-0.175
-0.19
-0.23
-0.23
-0.235
-0.22
-0.23
-0.235
-0.25
-0.26
-0.255
-0.255
-0.255
-0.265
-0.27
-0.27
-0.27
-0.27
-0.245
-0.25
-0.26
-0.27
-0.27
-0.255
-0.245
-0.26
-0.275
-0.27
-0.275
-0.27
-0.265
-0.275
-0.275
-0.285
-0.265
-0.25
-0.25
-0.255
-0.275
-0.265
-0.255
-0.24
-0.235
-0.25
-0.275
-0.27
-0.265
-0.255
-0.245
-0.25
-0.275
-0.27
-0.26
-0.25
-0.25
-0.25
-0.27
-0.275
-0.265
-0.255
-0.26
-0.265
-0.27
-0.275
-0.28
-0.255
-0.255
-0.26
-0.265
-0.275
-0.255
-0.25
-0.235
-0.255
-0.265
-0.27
-0.26
-0.235
-0.255
-0.255
-0.265
-0.285
-0.26
-0.255
-0.235
-0.245
-0.27
-0.27
-0.255
-0.255
-0.245
-0.255
-0.275
-0.275
-0.265
-0.245
-0.245
-0.26
-0.26
-0.27
-0.265
-0.26
-0.245
-0.265
-0.28
-0.28
-0.255
-0.26
-0.265
-0.265
-0.285
-0.28
-0.26
-0.255
-0.26
-0.265
-0.28
-0.28
-0.27
-0.255
-0.26
-0.265
-0.305
-0.295
-0.285
-0.26
-0.265
-0.265
-0.285
-0.275
-0.275
-0.25
-0.25
-0.255
-0.27
-0.275
-0.28
-0.27
-0.255
-0.27
-0.275
-0.27
-0.265
-0.26
-0.255
-0.255
-0.275
-0.285
-0.27
-0.26
-0.245
-0.26
-0.27
-0.275
-0.27
-0.255
-0.25
-0.26
-0.265
-0.27
-0.27
-0.245
-0.25
-0.265
-0.265
-0.27
-0.255
-0.245
-0.25
-0.255
-0.28
-0.27
-0.275
-0.25
-0.245
-0.25
-0.28
-0.285
-0.27
-0.245
-0.24
-0.27
-0.27
-0.28
-0.265
-0.27
-0.275
-0.27
-0.275
-0.28
-0.26
-0.255
-0.255
-0.255
-0.28
-0.27
-0.255
-0.255
-0.24
-0.27
-0.275
-0.28
-0.27
-0.265
-0.255
-0.265
-0.275
-0.275
-0.27
-0.26
-0.265
-0.265
-0.285
-0.29
-0.27
-0.24
-0.255
-0.255
-0.255
-0.255
-0.25
-0.24
-0.25
-0.26
-0.265
-0.27
-0.245
-0.21
-0.2
-0.19
-0.2
-0.195
-0.195
-0.175
-0.17
-0.17
-0.195
-0.19
-0.185
-0.185
-0.185
-0.195
-0.22
-0.23
-0.23
-0.225
-0.225
-0.245
-0.245
-0.255
-0.24
-0.22
-0.215
-0.23
-0.23
-0.25
-0.23
-0.23
-0.205
-0.215
-0.23
-0.23
-0.215
-0.19
-0.205
-0.215
-0.2
-0.19
-0.155
-0.11
-0.095
-0.06
-0.04
0.05
0.175
0.305
0.425
0.565
0.685
0.81
0.93
1.05
1.17
1.215
1.17
1.06
0.895
0.7
0.49
0.29
0.11
-0.015
-0.1
-0.125
-0.11
-0.115
-0.145
-0.16
-0.205
-0.2
-0.2
-0.23
-0.25
-0.26
-0.255
-0.245
-0.25
-0.26
-0.275
-0.285
-0.27
-0.265
-0.26
-0.29
-0.3
-0.3
-0.29
-0.275
-0.265
-0.275
-0.28
-0.29
-0.285
-0.26
-0.25
-0.27
-0.275
-0.29
-0.265
-0.26
-0.255
-0.27
-0.255
-0.26
-0.245
-0.25
-0.225
-0.23
-0.245
-0.245
-0.235
-0.215
-0.2
-0.205
-0.21
-0.205
-0.205
-0.18
-0.17
-0.175
-0.19
-0.18
-0.17
-0.135
-0.135
-0.115
-0.12
-0.115
-0.095
-0.07
-0.05
-0.055
-0.07
-0.045
-0.02
0.01
0.01
0.025
0.015
0.03
0.05
0.075
0.085
0.09
0.09
0.1
0.105
0.12
0.13
0.11
0.11
0.09
0.085
0.08
0.075
0.06
0.015
0
-0.015
-0.03
-0.045
-0.07
-0.105
-0.125
-0.15
-0.14
-0.155
-0.19
-0.215
-0.23
-0.23
-0.23
-0.23
-0.245
-0.275
-0.28
-0.265
-0.255
-0.26
-0.285
-0.29
-0.305
-0.295
-0.29
-0.285
-0.29
-0.31
-0.315
-0.33
-0.31
-0.3
-0.315
-0.315
-0.33
-0.32
-0.29
-0.29
-0.31
-0.32
-0.325
-0.31
-0.305
-0.3
-0.31
-0.31
-0.305
-0.305
-0.285
-0.28
-0.29
-0.31
-0.305
-0.295
-0.28
-0.28
-0.29
-0.3
-0.29
-0.29
-0.28
-0.28
-0.28
-0.3
-0.29
-0.27
-0.27
-0.26
-0.27
-0.295
-0.3
-0.285
-0.275
-0.265
-0.275
-0.305
-0.31
-0.295
-0.275
-0.28
-0.285
-0.3
-0.3
-0.295
-0.29
-0.28
-0.295
-0.31
-0.315
-0.31
-0.295
-0.295
-0.29
-0.305
-0.31
-0.31
-0.31
-0.31
-0.33
-0.345
-0.345
-0.32
-0.32
-0.32
-0.335
-0.335
-0.35
-0.335
-0.32
-0.325
-0.325
-0.335
-0.35
-0.35
-0.335
-0.33
-0.34
-0.345
-0.345
-0.35
-0.345
-0.335
-0.34
-0.35
-0.365
-0.35
-0.35
-0.335
-0.35
-0.355
-0.375
-0.355
-0.335
-0.345
-0.35
-0.35
-0.365
-0.35
-0.34
-0.33
-0.34
-0.36
-0.355
-0.345
-0.33
-0.345
-0.345
-0.345
-0.345
-0.35
-0.325
-0.32
-0.335
-0.345
-0.36
-0.35
-0.335
-0.335
-0.34
-0.36
-0.355
-0.35
-0.335
-0.335
-0.345
-0.36
-0.36
-0.335
-0.32
-0.33
-0.345
-0.36
-0.36
-0.34
-0.34
-0.325
-0.33
-0.335
-0.345
-0.335
-0.325
-0.325
-0.325
-0.345
-0.34
-0.345
-0.335
-0.31
-0.33
-0.35
-0.35
-0.33
-0.3
-0.31
-0.31
-0.325
-0.32
-0.32
-0.305
-0.305
-0.325
-0.32
-0.325
-0.31
-0.315
-0.29
-0.295
-0.315
-0.31
-0.3
-0.315
-0.29
-0.295
-0.315
-0.315
-0.305
-0.29
-0.29
-0.305
-0.3
-0.31
-0.305
-0.29
-0.28
-0.285
-0.305
-0.29
-0.295
-0.28
-0.275
-0.285
-0.29
-0.295
-0.3
-0.27
-0.255
-0.27
-0.255
-0.255
-0.245
-0.22
-0.205
-0.22
-0.235
-0.23
-0.21
-0.205
-0.21
-0.22
-0.24
-0.24
-0.25
-0.24
-0.245
-0.25
-0.28
-0.295
-0.3
-0.28
-0.275
-0.27
-0.285
-0.285
-0.29
-0.275
-0.27
-0.275
-0.29
-0.285
-0.275
-0.25
-0.245
-0.255
-0.26
-0.265
-0.24
-0.215
-0.205
-0.2
-0.185
-0.15
-0.12
-0.065
-0.02
0.04
0.115
0.22
0.36
0.525
0.655
0.77
0.865
0.995
1.125
1.195
1.195
1.11
0.945
0.725
0.51
0.335
0.175
0.025
-0.095
-0.15
-0.17
-0.155
-0.15
-0.165
-0.195
-0.195
-0.215
-0.21
-0.22
-0.255
-0.28
-0.295
-0.285
-0.28
-0.275
-0.28
-0.31
-0.32
-0.305
-0.29
-0.3
-0.295
-0.315
-0.315
-0.32
-0.29
-0.295
-0.285
-0.315
-0.31
-0.305
-0.3
-0.305
-0.305
-0.315
-0.32
-0.31
-0.285
-0.285
-0.29
-0.305
-0.305
-0.3
-0.29
-0.28
-0.28
-0.3
-0.29
-0.285
-0.275
-0.26
-0.255
-0.25
-0.26
-0.245
-0.235
-0.235
-0.22
-0.23
-0.23
-0.21
-0.185
-0.16
-0.165
-0.165
-0.17
-0.15
-0.12
-0.115
-0.105
-0.105
-0.09
-0.075
-0.055
-0.035
-0.035
-0.04
-0.03
-0.02
0
0.03
0.025
0.02
0.03
0.06
0.085
0.085
0.07
0.06
0.06
0.07
0.085
0.085
0.07
0.03
0.02
0.005
0.005
-0.01
-0.04
-0.07
-0.085
-0.095
-0.105
-0.13
-0.14
-0.185
-0.2
-0.205
-0.22
-0.23
-0.265
-0.27
-0.285
-0.295
-0.28
-0.285
-0.295
-0.32
-0.32
-0.315
-0.3
-0.315
-0.325
-0.345
-0.345
-0.345
-0.32
-0.32
-0.34
-0.34
-0.35
-0.34
-0.325
-0.325
-0.33
-0.33
-0.34
-0.34
-0.325
-0.325
-0.32
-0.345
-0.34
-0.335
-0.31
-0.31
-0.31
-0.335
-0.335
-0.32
-0.32
-0.31
-0.32
-0.33
-0.32
-0.34
-0.305
-0.3
-0.31
-0.33
-0.32
-0.32
-0.295
-0.305
-0.315
-0.325
-0.325
-0.33
-0.305
-0.3
-0.305
-0.335
-0.34
-0.325
-0.31
-0.305
-0.32
-0.335
-0.335
-0.335
-0.305
-0.3
-0.32
-0.335
-0.33
-0.32
-0.31
-0.305
-0.315
-0.34
-0.325
-0.33
-0.315
-0.31
-0.31
-0.32
-0.345
-0.33
-0.31
-0.305
-0.325
-0.32
-0.32
-0.3
-0.305
-0.295
-0.3
-0.335
-0.35
-0.33
-0.315
-0.305
-0.31
-0.325
-0.33
-0.32
-0.31
-0.305
-0.305
-0.33
-0.335
-0.32
-0.31
-0.295
-0.3
-0.325
-0.335
-0.315
-0.315
-0.3
-0.31
-0.32
-0.33
-0.315
-0.295
-0.295
-0.32
-0.32
-0.325
-0.315
-0.305
-0.29
-0.3
-0.31
-0.315
-0.305
-0.3
-0.305
-0.3
-0.33
-0.325
-0.315
-0.305
-0.295
-0.305
-0.335
-0.335
-0.315
-0.3
-0.3
-0.305
-0.315
-0.33
-0.315
-0.285
-0.29
-0.32
-0.325
-0.335
-0.295
-0.29
-0.285
-0.29
-0.31
-0.3
-0.295
-0.285
-0.275
-0.295
-0.3
-0.3
-0.285
-0.27
-0.275
-0.285
-0.295
-0.305
-0.285
-0.275
-0.285
-0.29
-0.31
-0.3
-0.31
-0.275
-0.265
-0.265
-0.285
-0.29
-0.29
-0.275
-0.27
-0.265
-0.28
-0.285
-0.275
-0.27
-0.27
-0.275
-0.285
-0.275
-0.27
-0.27
-0.255
-0.275
-0.29
-0.29
-0.285
-0.275
-0.26
-0.275
-0.28
-0.28
-0.28
-0.28
-0.275
-0.265
-0.285
-0.285
-0.275
-0.255
-0.26
-0.27
-0.285
-0.285
-0.275
-0.265
-0.26
-0.265
-0.28
-0.29
-0.26
-0.24
-0.22
-0.22
-0.225
-0.22
-0.2
-0.19
-0.19
-0.2
-0.21
-0.215
-0.21
-0.21
-0.21
-0.23
-0.23
-0.255
-0.24
-0.23
-0.23
-0.235
-0.26
-0.265
-0.255
-0.23
-0.24
-0.245
-0.26
-0.25
-0.24
-0.23
-0.23
-0.23
-0.24
-0.245
-0.23
-0.21
-0.205
-0.2
-0.21
-0.195
-0.185
-0.16
-0.145
-0.125
-0.12
-0.09
-0.045
-0.01
0.05
0.15
0.23
0.355
0.48
0.605
0.735
0.825
0.885
1.005
1.08
1.08
0.985
0.825
0.645
0.49
0.345
0.225
0.095
-0.02
-0.1
-0.14
-0.13
-0.115
-0.125
-0.145
-0.18
-0.2
-0.205
-0.205
-0.22
-0.235
-0.255
-0.255
-0.275
-0.27
-0.26
-0.27
-0.29
-0.3
-0.28
-0.285
-0.28
-0.285
-0.295
-0.295
-0.3
-0.29
-0.28
-0.295
-0.305
-0.305
-0.285
-0.275
-0.275
-0.275
-0.285
-0.29
-0.29
-0.275
-0.275
-0.275
-0.295
-0.275
-0.28
-0.27
-0.26
-0.27
-0.27
-0.27
-0.26
-0.24
-0.24
-0.27
-0.265
-0.27
-0.245
-0.235
-0.215
-0.215
-0.225
-0.21
-0.195
-0.17
-0.155
-0.17
-0.175
-0.16
-0.14
-0.11
-0.1
-0.105
-0.105
-0.105
-0.09
-0.065
-0.055
-0.045
-0.055
-0.03
-0.015
0.015
0.03
0.025
0.025
0.025
0.045
0.06
0.075
0.075
0.07
0.06
0.075
0.09
0.075
0.05
0.03
0.01
0.005
0.005
-0.02
-0.04
-0.07
-0.095
-0.12
-0.11
-0.125
-0.16
-0.18
-0.195
-0.205
-0.21
-0.23
-0.24
-0.26
-0.27
-0.255
-0.255
-0.255
-0.28
-0.295
-0.31
-0.3
-0.29
-0.295
-0.295
-0.315
-0.32
-0.33
-0.31
-0.315
-0.325
-0.345
-0.335
-0.34
-0.33
-0.31
-0.32
-0.335
-0.34
-0.33
-0.315
-0.315
-0.32
-0.335
-0.345
-0.33
-0.315
-0.315
-0.33
-0.34
-0.34
-0.33
-0.315
-0.32
-0.335
-0.355
-0.35
-0.34
-0.325
-0.33
-0.335
-0.355
-0.355
-0.34
-0.32
-0.32
-0.335
-0.33
-0.33
-0.325
-0.315
-0.31
-0.315
-0.33
-0.32
-0.315
-0.305
-0.295
-0.305
-0.315
-0.325
-0.315
-0.295
-0.29
-0.31
-0.315
-0.315
-0.325
-0.305
-0.29
-0.305
-0.33
-0.32
-0.32
-0.295
-0.305
-0.305
-0.33
-0.325
-0.325
-0.305
-0.3
-0.31
-0.33
-0.33
-0.325
-0.3
-0.295
-0.32
-0.335
-0.325
-0.32
-0.315
-0.315
-0.3
-0.32
-0.32
-0.305
-0.305
-0.305
-0.305
-0.335
-0.32
-0.315
-0.3
-0.305
-0.315
-0.335
-0.335
-0.31
-0.32
-0.3
-0.31
-0.32
-0.33
-0.315
-0.305
-0.3
-0.315
-0.315
-0.33
-0.325
-0.305
-0.305
-0.315
-0.315
-0.325
-0.315
-0.295
-0.29
-0.29
-0.31
-0.32
-0.32
-0.3
-0.295
-0.305
-0.32
-0.325
-0.32
-0.31
-0.305
-0.31
-0.32
-0.335
-0.33
-0.32
-0.305
-0.31
-0.33
-0.345
-0.32
-0.305
-0.3
-0.325
-0.335
-0.325
-0.315
-0.295
-0.3
-0.295
-0.31
-0.325
-0.32
-0.3
-0.315
-0.305
-0.315
-0.32
-0.31
-0.3
-0.295
-0.305
-0.325
-0.32
-0.32
-0.295
-0.285
-0.295
-0.325
-0.31
-0.305
-0.29
-0.295
-0.3
-0.315
-0.32
-0.295
-0.295
-0.3
-0.285
-0.295
-0.295
-0.29
-0.27
-0.275
-0.285
-0.295
-0.29
-0.28
-0.26
-0.265
-0.28
-0.29
-0.3
-0.295
-0.255
-0.275
-0.28
-0.285
-0.3
-0.28
-0.245
-0.245
-0.255
-0.255
-0.24
-0.23
-0.21
-0.205
-0.23
-0.255
-0.24
-0.245
-0.225
-0.23
-0.245
-0.27
-0.275
-0.28
-0.265
-0.26
-0.28
-0.285
-0.285
-0.28
-0.255
-0.26
-0.275
-0.275
-0.275
-0.265
-0.27
-0.255
-0.26
-0.27
-0.275
-0.265
-0.25
-0.255
-0.245
-0.245
-0.25
-0.23
-0.205
-0.18
-0.17
-0.145
-0.105
-0.08
-0.035
0.035
0.125
0.21
0.34
0.49
0.635
0.745
0.84
0.93
1.06
1.155
1.19
1.13
1.005
0.805
0.605
0.42
0.26
0.1
-0.04
-0.145
-0.185
-0.18
-0.145
-0.155
-0.175
-0.185
-0.205
-0.215
-0.22
-0.225
-0.24
-0.27
-0.29
-0.275
-0.265
-0.255
-0.28
-0.29
-0.285
-0.28
-0.275
-0.28
-0.295
-0.305
-0.3
-0.295
-0.28
-0.275
-0.285
-0.3
-0.31
-0.305
-0.28
-0.265
-0.285
-0.3
-0.295
-0.28
-0.265
-0.26
-0.265
-0.275
-0.275
-0.27
-0.265
-0.265
-0.255
-0.275
-0.27
-0.25
-0.24
-0.23
-0.23
-0.245
-0.245
-0.24
-0.2
-0.195
-0.195
-0.205
-0.205
-0.185
-0.155
-0.135
-0.14
-0.155
-0.16
-0.13
-0.095
-0.075
-0.08
-0.07
-0.07
-0.05
-0.025
-0.01
-0.02
-0.01
-0.015
0.02
0.045
0.05
0.03
0.035
0.03
0.07
0.085
0.08
0.08
0.04
0.055
0.045
0.04
0.025
-0.005
-0.03
-0.045
-0.07
-0.06
-0.085
-0.115
-0.165
-0.18
-0.165
-0.165
-0.185
-0.2
-0.22
-0.255
-0.24
-0.24
-0.24
-0.265
-0.3
-0.3
-0.28
-0.275
-0.275
-0.28
-0.3
-0.315
-0.305
-0.28
-0.29
-0.305
-0.32
-0.31
-0.31
-0.295
-0.3
-0.31
-0.32
-0.315
-0.3
-0.29
-0.285
-0.31
-0.3
-0.315
-0.305
-0.29
-0.29
-0.29
-0.315
-0.3
-0.285
-0.27
-0.28
-0.285
-0.305
-0.29
-0.275
-0.27
-0.265
-0.27
-0.28
-0.285
-0.295
-0.275
-0.255
-0.26
-0.275
-0.285
-0.27
-0.255
-0.26
-0.26
-0.275
-0.275
-0.26
-0.245
-0.25
-0.255
-0.285
-0.28
-0.27
-0.275
-0.26
-0.255
-0.265
-0.285
-0.275
-0.26
-0.275
-0.27
-0.275
-0.27
-0.28
-0.275
-0.27
-0.28
-0.285
-0.29
-0.28
-0.27
-0.265
-0.275
-0.29
-0.285
-0.28
-0.28
-0.265
-0.27
-0.285
-0.29
-0.29
-0.28
-0.26
-0.27
-0.295
-0.29
-0.28
-0.29
-0.27
-0.285
-0.295
-0.295
-0.28
-0.26
-0.26
-0.265
-0.285
-0.305
-0.285
-0.25
-0.26
-0.275
-0.285
-0.285
-0.29
-0.27
-0.265
-0.27
-0.28
-0.285
-0.27
-0.255
-0.25
-0.27
-0.285
-0.275
-0.265
-0.255
-0.25
-0.265
-0.275
-0.26
-0.27
-0.265
-0.255
-0.265
-0.29
-0.29
-0.275
-0.265
-0.245
-0.255
-0.265
-0.27
-0.275
-0.25
-0.265
-0.26
-0.27
-0.275
-0.26
-0.24
-0.24
-0.245
-0.255
-0.255
-0.255
-0.24
-0.245
-0.245
-0.26
-0.255
-0.24
-0.23
-0.225
-0.235
-0.255
-0.25
-0.245
-0.225
-0.235
-0.24
-0.25
-0.245
-0.245
-0.23
-0.21
-0.23
-0.245
-0.235
-0.22
-0.205
-0.205
-0.22
-0.22
-0.235
-0.235
-0.205
-0.195
-0.215
-0.235
-0.235
-0.225
-0.2
-0.195
-0.195
-0.21
-0.215
-0.21
-0.175
-0.185
-0.18
-0.195
-0.21
-0.2
-0.2
-0.185
-0.19
-0.185
-0.18
-0.155
-0.15
-0.125
-0.14
-0.14
-0.14
-0.145
-0.12
-0.125
-0.145
-0.155
-0.15
-0.15
-0.15
-0.155
-0.165
-0.195
-0.185
-0.19
-0.165
-0.17
-0.18
-0.2
-0.185
-0.18
-0.16
-0.155
-0.175
-0.185
-0.175
-0.175
-0.155
-0.16
-0.15
-0.18
-0.155
-0.145
-0.13
-0.115
-0.11
-0.1
-0.07
-0.03
0.02
0.05
0.1
0.175
0.275
0.4
0.52
0.635
0.75
0.84
0.925
1.045
1.135
1.175
1.12
1.005
0.86
0.69
0.51
0.385
0.23
0.095
0.015
-0.025
-0.03
-0.03
-0.055
-0.08
-0.125
-0.13
-0.135
-0.16
-0.165
-0.195
-0.195
-0.2
-0.18
-0.185
-0.2
-0.22
-0.23
-0.215
-0.21
-0.205
-0.23
-0.255
-0.235
-0.225
-0.215
-0.225
-0.215
-0.23
-0.235
-0.23
-0.215
-0.205
-0.225
-0.24
-0.23
-0.22
-0.205
-0.21
-0.2
-0.22
-0.215
-0.2
-0.19
-0.19
-0.2
-0.195
-0.195
-0.17
-0.15
-0.155
-0.155
-0.16
-0.155
-0.15
-0.135
-0.12
-0.12
-0.125
-0.125
-0.115
-0.09
-0.08
-0.065
-0.08
-0.065
-0.045
-0.015
-0.015
-0.005
-0.01
0.005
0.015
0.05
0.06
0.07
0.07
0.075
0.09
0.11
0.125
0.115
0.115
0.115
0.125
0.135
0.125
0.125
0.11
0.095
0.08
0.08
0.06
0.04
0.005
-0.035
-0.045
-0.05
-0.07
-0.08
-0.1
-0.115
-0.135
-0.14
-0.15
-0.17
-0.195
-0.19
-0.2
-0.205
-0.2
-0.215
-0.23
-0.245
-0.235
-0.22
-0.235
-0.25
-0.265
-0.27
-0.265
-0.25
-0.25
-0.265
-0.26
-0.27
-0.26
-0.255
-0.24
-0.26
-0.26
-0.27
-0.265
-0.26
-0.26
-0.275
-0.275
-0.275
-0.28
-0.27
-0.27
-0.27
-0.27
-0.285
-0.275
-0.265
-0.255
-0.27
-0.28
-0.295
-0.29
-0.26
-0.275
-0.275
-0.285
-0.295
-0.28
-0.27
-0.26
-0.27
-0.295
-0.295
-0.275
-0.27
-0.25
-0.265
-0.285
-0.285
-0.27
-0.255
-0.25
-0.265
-0.28
-0.285
-0.27
-0.26
-0.26
-0.28
-0.295
-0.28
-0.28
-0.27
-0.27
-0.265
-0.28
-0.275
-0.275
-0.27
-0.26
-0.275
-0.3
-0.29
-0.28
-0.26
-0.265
-0.275
-0.285
-0.295
-0.28
-0.265
-0.26
-0.285
-0.285
-0.3
-0.285
-0.275
-0.27
-0.3
-0.3
-0.295
-0.28
-0.275
-0.27
-0.285
-0.3
-0.295
-0.28
-0.28
-0.275
-0.27
-0.29
-0.3
-0.285
-0.265
-0.27
-0.27
-0.295
-0.295
-0.3
-0.27
-0.27
-0.275
-0.29
-0.29
-0.285
-0.275
-0.265
-0.28
-0.29
-0.28
-0.28
-0.255
-0.265
-0.27
-0.27
-0.275
-0.265
-0.25
-0.26
-0.28
-0.295
-0.27
-0.255
-0.245
-0.255
-0.265
-0.275
-0.28
-0.265
-0.27
-0.245
-0.275
-0.27
-0.28
-0.26
-0.255
-0.255
-0.27
-0.28
-0.275
-0.26
-0.255
-0.25
-0.26
-0.255
-0.27
-0.26
-0.235
-0.255
-0.25
-0.265
-0.265
-0.245
-0.23
-0.23
-0.245
-0.255
-0.265
-0.255
-0.235
-0.235
-0.235
-0.25
-0.24
-0.245
-0.225
-0.225
-0.235
-0.24
-0.245
-0.24
-0.24
-0.22
-0.23
-0.23
-0.235
-0.23
-0.21
-0.205
-0.215
-0.235
-0.23
-0.22
-0.2
-0.195
-0.215
-0.235
-0.23
-0.22
-0.23
-0.235
-0.245
-0.245
-0.245
-0.21
-0.185
-0.175
-0.17
-0.19
-0.17
-0.165
-0.145
-0.145
-0.16
-0.175
-0.17
-0.175
-0.16
-0.18
-0.19
-0.2
-0.205
-0.205
-0.19
-0.195
-0.205
-0.21
-0.21
-0.215
-0.19
-0.19
-0.195
-0.2
-0.21
-0.215
-0.2
-0.185
-0.19
-0.195
-0.205
-0.18
-0.165
-0.16
-0.165
-0.175
-0.165
-0.14
-0.095
-0.065
-0.04
-0.035
0
0.085
0.2
0.315
0.42
0.525
0.67
0.795
0.905
1.025
1.11
1.12
1.055
0.935
0.79
0.595
0.4
0.225
0.07
-0.025
-0.085
-0.1
-0.105
-0.12
-0.13
-0.155
-0.175
-0.18
-0.205
-0.225
-0.225
-0.225
-0.225
-0.23
-0.245
-0.26
-0.26
-0.25
-0.24
-0.24
-0.26
-0.26
-0.28
-0.26
-0.245
-0.25
-0.265
-0.28
-0.275
-0.26
-0.26
-0.245
-0.255
-0.26
-0.26
-0.25
-0.245
-0.24
-0.245
-0.255
-0.255
-0.235
-0.215
-0.215
-0.23
-0.23
-0.225
-0.225
-0.2
-0.195
-0.205
-0.215
-0.2
-0.19
-0.18
-0.165
-0.16
-0.18
-0.16
-0.14
-0.12
-0.115
-0.12
-0.12
-0.105
-0.09
-0.075
-0.055
-0.035
-0.04
-0.035
-0.02
0.01
0.04
0.03
0.04
0.05
0.07
0.09
0.105
0.11
0.1
0.105
0.125
0.15
0.14
0.145
0.12
0.115
0.105
0.105
0.1
0.06
0.03
-0.015
0
0
-0.02
-0.06
-0.095
-0.115
-0.11
-0.11
-0.125
-0.15
-0.18
-0.195
-0.185
-0.175
-0.185
-0.205
-0.22
-0.22
-0.22
-0.225
-0.23
-0.225
-0.24
-0.25
-0.235
-0.22
-0.22
-0.235
-0.25
-0.25
-0.245
-0.23
-0.245
-0.24
-0.235
-0.23
-0.225
-0.21
-0.23
-0.225
-0.23
-0.225
-0.22
-0.21
-0.215
-0.225
-0.23
-0.25
-0.23
-0.215
-0.225
-0.225
-0.245
-0.23
-0.225
-0.215
-0.21
-0.22
-0.245
-0.24
-0.215
-0.205
-0.205
-0.225
-0.225
-0.23
-0.23
-0.215
-0.2
-0.215
-0.23
-0.225
-0.225
-0.225
-0.22
-0.22
-0.24
-0.25
-0.245
-0.215
-0.225
-0.225
-0.245
-0.245
-0.23
-0.225
-0.23
-0.24
-0.245
-0.25
-0.24
-0.23
-0.235
-0.24
-0.245
-0.25
-0.25
-0.24
-0.225
-0.23
-0.245
-0.25
-0.245
-0.24
-0.235
-0.24
-0.25
-0.25
-0.24
-0.215
-0.225
-0.235
-0.25
-0.26
-0.245
-0.24
-0.23
-0.235
-0.255
-0.26
-0.24
-0.23
-0.22
-0.235
-0.245
-0.245
-0.23
-0.23
-0.225
-0.235
-0.25
-0.235
-0.23
-0.22
-0.22
-0.23
-0.245
-0.245
-0.235
-0.22
-0.215
-0.23
-0.255
-0.24
-0.235
-0.225
-0.22
-0.23
-0.235
-0.235
-0.235
-0.22
-0.225
-0.235
-0.235
-0.245
-0.22
-0.215
-0.22
-0.225
-0.245
-0.245
-0.23
-0.215
-0.21
-0.22
-0.245
-0.23
-0.225
-0.21
-0.225
-0.245
-0.255
-0.25
-0.235
-0.225
-0.225
-0.23
-0.255
-0.255
-0.235
-0.22
-0.22
-0.24
-0.265
-0.255
-0.245
-0.225
-0.225
-0.23
-0.245
-0.245
-0.23
-0.235
-0.22
-0.23
-0.245
-0.245
-0.24
-0.225
-0.225
-0.22
-0.245
-0.255
-0.24
-0.22
-0.23
-0.235
-0.25
-0.245
-0.235
-0.21
-0.215
-0.225
-0.245
-0.24
-0.245
-0.22
-0.22
-0.22
-0.24
-0.235
-0.225
-0.21
-0.21
-0.21
-0.235
-0.25
-0.225
-0.215
-0.215
-0.205
-0.2
-0.2
-0.18
-0.165
-0.15
-0.16
-0.175
-0.175
-0.155
-0.135
-0.135
-0.16
-0.17
-0.175
-0.18
-0.17
-0.16
-0.185
-0.2
-0.2
-0.185
-0.18
-0.165
-0.175
-0.205
-0.205
-0.185
-0.175
-0.17
-0.175
-0.185
-0.185
-0.175
-0.165
-0.145
-0.15
-0.17
-0.15
-0.14
-0.11
-0.095
-0.085
-0.07
-0.045
0.005
0.065
0.135
0.215
0.32
0.435
0.57
0.705
0.83
0.92
1.02
1.105
1.2
1.19
1.095
0.94
0.73
0.55
0.385
0.235
0.1
-0.015
-0.08
-0.105
-0.1
-0.07
-0.09
-0.125
-0.15
-0.185
-0.19
-0.195
-0.195
-0.225
-0.235
-0.24
-0.235
-0.23
-0.24
-0.245
-0.265
-0.275
-0.255
-0.255
-0.26
-0.27
-0.27
-0.275
-0.285
-0.245
-0.25
-0.265
-0.275
-0.275
-0.27
-0.255
-0.255
-0.26
-0.26
-0.275
-0.245
-0.235
-0.235
-0.24
-0.255
-0.24
-0.23
-0.215
-0.215
-0.22
-0.23
-0.245
-0.21
-0.195
-0.2
-0.21
-0.22
-0.21
-0.185
-0.18
-0.16
-0.155
-0.16
-0.145
-0.13
-0.115
-0.11
-0.1
-0.12
-0.095
-0.085
-0.055
-0.05
-0.05
-0.05
-0.045
-0.035
-0.01
0.005
0.01
0.01
0.02
0.04
0.04
0.065
0.07
0.055
0.07
0.095
0.125
0.105
0.12
0.11
0.1
0.11
0.115
0.105
0.085
0.06
0.05
0.045
0.03
0.015
-0.03
-0.05
-0.08
-0.085
-0.095
-0.1
-0.145
-0.155
-0.17
-0.18
-0.18
-0.2
-0.22
-0.245
-0.26
-0.26
-0.255
-0.26
-0.28
-0.29
-0.29
-0.285
-0.27
-0.27
-0.27
-0.29
-0.295
-0.285
-0.295
-0.28
-0.3
-0.3
-0.305
-0.3
-0.285
-0.28
-0.29
-0.29
-0.31
-0.3
-0.285
-0.285
-0.3
-0.31
-0.31
-0.31
-0.29
-0.28
-0.29
-0.305
-0.295
-0.295
-0.26
-0.275
-0.275
-0.285
-0.28
-0.28
-0.265
-0.26
-0.265
-0.29
-0.29
-0.27
-0.255
-0.26
-0.27
-0.28
-0.28
-0.265
-0.24
-0.245
-0.265
-0.265
-0.265
-0.255
-0.255
-0.24
-0.245
-0.265
-0.26
-0.255
-0.255
-0.235
-0.25
-0.28
-0.28
-0.265
-0.25
-0.25
-0.26
-0.275
-0.27
-0.26
-0.26
-0.265
-0.27
-0.28
-0.275
-0.265
-0.255
-0.26
-0.275
-0.295
-0.285
-0.28
-0.27
-0.275
-0.28
-0.285
-0.285
-0.28
-0.27
-0.27
-0.285
-0.285
-0.295
-0.29
-0.285
-0.28
-0.285
-0.29
-0.3
-0.285
-0.28
-0.275
-0.29
-0.3
-0.3
-0.29
-0.275
-0.285
-0.295
-0.305
-0.29
-0.29
-0.28
-0.27
-0.29
-0.29
-0.3
-0.29
-0.265
-0.26
-0.265
-0.285
-0.285
-0.27
-0.26
-0.255
-0.26
-0.28
-0.28
-0.27
-0.245
-0.25
-0.255
-0.27
-0.27
-0.26
-0.255
-0.26
-0.265
-0.275
-0.27
-0.26
-0.25
-0.245
-0.25
-0.26
-0.255
-0.245
-0.245
-0.235
-0.245
-0.255
-0.255
-0.245
-0.24
-0.235
-0.235
-0.26
-0.26
-0.245
-0.235
-0.235
-0.245
-0.245
-0.26
-0.245
-0.225
-0.225
-0.23
-0.25
-0.25
-0.245
-0.24
-0.225
-0.25
-0.26
-0.245
-0.255
-0.24
-0.23
-0.24
-0.265
-0.25
-0.255
-0.24
-0.245
-0.25
-0.255
-0.255
-0.25
-0.23
-0.245
-0.26
-0.255
-0.26
-0.255
-0.245
-0.235
-0.255
-0.255
-0.265
-0.25
-0.235
-0.235
-0.245
-0.25
-0.255
-0.25
-0.245
-0.23
-0.25
-0.26
-0.25
-0.235
-0.225
-0.225
-0.245
-0.26
-0.27
-0.255
-0.25
-0.24
-0.23
-0.235
-0.22
-0.195
-0.175
-0.165
-0.19
-0.19
-0.19
-0.17
-0.165
-0.165
-0.18
-0.195
-0.21
-0.205
-0.2
-0.2
-0.22
-0.235
-0.235
-0.23
-0.22
-0.205
-0.23
-0.24
-0.24
-0.21
-0.205
-0.195
-0.225
-0.22
-0.225
-0.2
-0.18
-0.18
-0.19
-0.195
-0.2
-0.175
-0.16
-0.145
-0.13
-0.135
-0.1
-0.06
-0.04
-0.01
0.04
0.1
0.205
0.31
0.445
0.555
0.665
0.77
0.85
0.96
1.08
1.155
1.17
1.08
0.965
0.825
0.68
0.5
0.335
0.2
0.06
-0.015
-0.055
-0.06
-0.085
-0.115
-0.125
-0.14
-0.135
-0.155
-0.185
-0.225
-0.215
-0.225
-0.23
-0.235
-0.24
-0.26
-0.285
-0.28
-0.26
-0.25
-0.28
-0.29
-0.31
-0.27
-0.26
-0.26
-0.27
-0.285
-0.28
-0.275
-0.27
-0.27
-0.275
-0.29
-0.285
-0.28
-0.27
-0.265
-0.27
-0.275
-0.275
-0.27
-0.25
-0.265
-0.255
-0.27
-0.27
-0.245
-0.235
-0.23
-0.245
-0.265
-0.24
-0.23
-0.21
-0.195
-0.21
-0.225
-0.22
-0.2
-0.185
-0.195
-0.2
-0.185
-0.18
-0.17
-0.145
-0.135
-0.135
-0.135
-0.125
-0.11
-0.08
-0.07
-0.065
-0.07
-0.06
-0.04
-0.02
-0.005
-0.01
-0.015
-0.01
0.025
0.05
0.055
0.055
0.055
0.06
0.075
0.095
0.11
0.1
0.09
0.085
0.09
0.085
0.085
0.08
0.06
0.03
0.035
0.035
0.01
-0.02
-0.055
-0.075
-0.075
-0.08
-0.115
-0.13
-0.155
-0.175
-0.19
-0.19
-0.2
-0.215
-0.24
-0.255
-0.245
-0.25
-0.255
-0.28
-0.29
-0.285
-0.29
-0.275
-0.275
-0.285
-0.285
-0.285
-0.285
-0.285
-0.3
-0.295
-0.305
-0.3
-0.285
-0.275
-0.275
-0.29
-0.305
-0.305
-0.305
-0.285
-0.285
-0.3
-0.315
-0.305
-0.295
-0.29
-0.28
-0.305
-0.305
-0.31
-0.3
-0.285
-0.285
-0.305
-0.3
-0.31
-0.29
-0.27
-0.275
-0.295
-0.305
-0.305
-0.29
-0.275
-0.285
-0.295
-0.32
-0.315
-0.305
-0.295
-0.285
-0.295
-0.31
-0.305
-0.315
-0.29
-0.3
-0.32
-0.31
-0.315
-0.305
-0.295
-0.305
-0.315
-0.315
-0.31
-0.305
-0.3
-0.29
-0.295
-0.31
-0.305
-0.31
-0.31
-0.285
-0.31
-0.32
-0.33
-0.305
-0.29
-0.29
-0.295
-0.31
-0.315
-0.295
-0.295
-0.295
-0.3
-0.315
-0.32
-0.3
-0.295
-0.29
-0.3
-0.315
-0.31
-0.315
-0.29
-0.285
-0.295
-0.32
-0.32
-0.305
-0.29
-0.285
-0.305
-0.3
-0.325
-0.31
-0.295
-0.285
-0.305
-0.32
-0.33
-0.315
-0.29
-0.29
-0.285
-0.305
-0.325
-0.315
-0.3
-0.285
-0.305
-0.305
-0.305
-0.295
-0.29
-0.29
-0.295
-0.31
-0.315
-0.31
-0.29
-0.29
-0.295
-0.31
-0.325
-0.31
-0.3
-0.29
-0.31
-0.3
-0.305
-0.295
-0.28
-0.285
-0.3
-0.295
-0.3
-0.3
-0.285
-0.285
-0.285
-0.3
-0.3
-0.295
-0.28
-0.27
-0.285
-0.3
-0.295
-0.29
-0.27
-0.27
-0.285
-0.295
-0.3
-0.29
-0.27
-0.255
-0.275
-0.285
-0.285
-0.285
-0.265
-0.26
-0.27
-0.28
-0.285
-0.27
-0.265
-0.265
-0.265
-0.295
-0.28
-0.28
-0.265
-0.275
-0.285
-0.29
-0.285
-0.28
-0.25
-0.255
-0.265
-0.285
-0.28
-0.275
-0.26
-0.285
-0.29
-0.295
-0.29
-0.275
-0.255
-0.255
-0.265
-0.28
-0.285
-0.285
-0.27
-0.27
-0.265
-0.29
-0.275
-0.275
-0.27
-0.265
-0.26
-0.275
-0.275
-0.26
-0.25
-0.235
-0.245
-0.255
-0.265
-0.27
-0.24
-0.24
-0.245
-0.285
-0.285
-0.26
-0.25
-0.25
-0.23
-0.235
-0.22
-0.21
-0.19
-0.175
-0.18
-0.195
-0.2
-0.19
-0.185
-0.195
-0.21
-0.195
-0.215
-0.2
-0.195
-0.195
-0.22
-0.25
-0.26
-0.23
-0.215
-0.225
-0.245
-0.245
-0.255
-0.23
-0.225
-0.225
-0.235
-0.245
-0.245
-0.225
-0.205
-0.21
-0.22
-0.22
-0.215
-0.21
-0.2
-0.175
-0.18
-0.175
-0.17
-0.14
-0.1
-0.085
-0.055
-0.04
0.015
0.115
0.23
0.34
0.465
0.585
0.715
0.855
0.97
1.085
1.19
1.265
1.29
1.255
1.165
1.01
0.82
0.62
0.44
0.285
0.14
0.02
-0.07
-0.12
-0.12
-0.1
-0.085
-0.1
-0.14
-0.165
-0.185
-0.18
-0.19
-0.21
-0.235
-0.24
-0.245
-0.235
-0.22
-0.235
-0.24
-0.26
-0.255
-0.25
-0.235
-0.245
-0.245
-0.275
-0.255
-0.25
-0.245
-0.225
-0.235
-0.25
-0.245
-0.25
-0.23
-0.235
-0.24
-0.25
-0.25
-0.24
-0.215
-0.215
-0.215
-0.235
-0.235
-0.22
-0.195
-0.2
-0.2
-0.22
-0.21
-0.19
-0.17
-0.165
-0.18
-0.195
-0.19
-0.175
-0.16
-0.145
-0.16
-0.155
-0.15
-0.14
-0.115
-0.105
-0.11
-0.095
-0.1
-0.08
-0.065
-0.05
-0.06
-0.05
-0.035
-0.01
0.015
0.015
0.015
0.02
0.03
0.045
0.075
0.08
0.075
0.085
0.085
0.105
0.13
0.12
0.125
0.12
0.115
0.125
0.14
0.145
0.13
0.11
0.09
0.095
0.085
0.06
0.045
0
-0.015
-0.035
-0.035
-0.05
-0.08
-0.1
-0.125
-0.135
-0.135
-0.15
-0.185
-0.2
-0.21
-0.215
-0.21
-0.21
-0.22
-0.235
-0.24
-0.235
-0.22
-0.23
-0.23
-0.25
-0.255
-0.255
-0.235
-0.245
-0.265
-0.28
-0.28
-0.25
-0.245
-0.24
-0.245
-0.265
-0.26
-0.25
-0.255
-0.235
-0.255
-0.255
-0.255
-0.24
-0.22
-0.22
-0.23
-0.235
-0.26
-0.235
-0.24
-0.225
-0.25
-0.265
-0.27
-0.255
-0.225
-0.225
-0.225
-0.245
-0.23
-0.23
-0.215
-0.215
-0.23
-0.235
-0.25
-0.255
-0.225
-0.23
-0.23
-0.255
-0.25
-0.24
-0.23
-0.22
-0.25
-0.245
-0.25
-0.235
-0.225
-0.22
-0.225
-0.245
-0.255
-0.25
-0.235
-0.225
-0.24
-0.25
-0.255
-0.255
-0.24
-0.25
-0.25
-0.26
-0.27
-0.26
-0.275
-0.255
-0.25
-0.275
-0.265
-0.265
-0.24
-0.25
-0.27
-0.275
-0.255
-0.27
-0.255
-0.255
-0.26
-0.275
-0.285
-0.26
-0.26
-0.25
-0.255
-0.285
-0.265
-0.25
-0.245
-0.225
-0.24
-0.26
-0.27
-0.265
-0.25
-0.24
-0.26
-0.27
-0.265
-0.245
-0.24
-0.24
-0.245
-0.255
-0.265
-0.26
-0.235
-0.245
-0.245
-0.25
-0.26
-0.25
-0.23
-0.245
-0.255
-0.25
-0.25
-0.235
-0.24
-0.235
-0.23
-0.25
-0.26
-0.245
-0.225
-0.225
-0.245
-0.245
-0.25
-0.24
-0.215
-0.225
-0.225
-0.25
-0.245
-0.24
-0.23
-0.225
-0.23
-0.26
-0.255
-0.23
-0.22
-0.225
-0.225
-0.23
-0.23
-0.235
-0.215
-0.21
-0.215
-0.25
-0.24
-0.225
-0.2
-0.21
-0.215
-0.235
-0.235
-0.22
-0.205
-0.215
-0.21
-0.21
-0.225
-0.22
-0.2
-0.185
-0.2
-0.225
-0.22
-0.195
-0.21
-0.185
-0.195
-0.2
-0.23
-0.2
-0.195
-0.195
-0.195
-0.215
-0.21
-0.215
-0.19
-0.185
-0.2
-0.205
-0.205
-0.2
-0.195
-0.195
-0.19
-0.2
-0.2
-0.2
-0.195
-0.19
-0.195
-0.21
-0.2
-0.195
-0.18
-0.18
-0.19
-0.21
-0.205
-0.205
-0.19
-0.195
-0.21
-0.235
-0.215
-0.185
-0.165
-0.145
-0.145
-0.155
-0.155
-0.145
-0.115
-0.115
-0.13
-0.135
-0.155
-0.14
-0.14
-0.15
-0.16
-0.18
-0.195
-0.18
-0.17
-0.19
-0.195
-0.205
-0.205
-0.21
-0.185
-0.17
-0.185
-0.19
-0.2
-0.19
-0.175
-0.16
-0.175
-0.19
-0.185
-0.165
-0.145
-0.155
-0.145
-0.16
-0.155
-0.12
-0.08
-0.065
-0.055
-0.035
0.015
0.07
0.215
0.31
0.43
0.53
0.66
0.795
0.925
1.04
1.155
1.215
1.2
1.13
0.995
0.81
0.59
0.4
0.255
0.125
0.045
-0.03
-0.06
-0.085
-0.08
-0.08
-0.1
-0.125
-0.15
-0.18
-0.205
-0.195
-0.19
-0.195
-0.215
-0.23
-0.24
-0.23
-0.205
-0.21
-0.23
-0.24
-0.245
-0.24
-0.215
-0.225
-0.235
-0.24
-0.24
-0.225
-0.21
-0.22
-0.235
-0.25
-0.245
-0.22
-0.215
-0.22
-0.215
-0.235
-0.23
-0.22
-0.2
-0.2
-0.21
-0.215
-0.215
-0.195
-0.185
-0.175
-0.195
-0.2
-0.21
-0.205
-0.18
-0.16
-0.16
-0.17
-0.17
-0.15
-0.12
-0.135
-0.13
-0.135
-0.135
-0.11
-0.075
-0.065
-0.06
-0.06
-0.065
-0.04
-0.01
0.005
0.005
0.005
0.005
0.02
0.055
0.065
0.075
0.065
0.07
0.075
0.09
0.115
0.11
0.105
0.105
0.12
0.145
0.13
0.115
0.08
0.07
0.06
0.055
0.025
-0.005
-0.035
-0.055
-0.075
-0.075
-0.095
-0.12
-0.155
-0.17
-0.165
-0.185
-0.18
-0.195
-0.225
-0.23
-0.225
-0.23
-0.215
-0.25
-0.265
-0.265
-0.25
-0.245
-0.25
-0.24
-0.27
-0.27
-0.245
-0.24
-0.245
-0.25
-0.255
-0.26
-0.25
-0.235
-0.235
-0.26
-0.27
-0.265
-0.265
-0.255
-0.26
-0.265
-0.28
-0.28
-0.265
-0.25
-0.25
-0.26
-0.3
-0.28
-0.275
-0.26
-0.26
-0.275
-0.29
-0.29
-0.28
-0.26
-0.265
-0.275
-0.29
-0.29
-0.275
-0.25
-0.25
-0.255
-0.265
-0.28
-0.255
-0.24
-0.25
-0.245
-0.25
-0.245
-0.24
-0.24
-0.235
-0.25
-0.25
-0.255
-0.245
-0.24
-0.245
-0.24
-0.27
-0.255
-0.255
-0.235
-0.25
-0.245
-0.26
-0.27
-0.245
-0.235
-0.255
-0.24
-0.25
-0.255
-0.245
-0.23
-0.23
-0.25
-0.265
-0.255
-0.25
-0.245
-0.235
-0.255
-0.26
-0.265
-0.25
-0.23
-0.225
-0.245
-0.27
-0.28
-0.275
-0.25
-0.24
-0.265
-0.26
-0.27
-0.25
-0.24
-0.255
-0.25
-0.255
-0.255
-0.245
-0.225
-0.23
-0.245
-0.255
-0.25
-0.24
-0.245
-0.235
-0.24
-0.255
-0.255
-0.24
-0.225
-0.23
-0.23
-0.25
-0.25
-0.24
-0.23
-0.23
-0.235
-0.25
-0.245
-0.235
-0.22
-0.215
-0.23
-0.23
-0.23
-0.22
-0.21
-0.21
-0.22
-0.225
-0.235
-0.23
-0.21
-0.21
-0.21
-0.23
-0.23
-0.22
-0.21
-0.205
-0.215
-0.225
-0.22
-0.21
-0.205
-0.22
-0.235
-0.245
-0.225
-0.225
-0.2
-0.195
-0.21
-0.225
-0.23
-0.2
-0.19
-0.18
-0.205
-0.22
-0.22
-0.2
-0.21
-0.195
-0.2
-0.215
-0.22
-0.22
-0.21
-0.205
-0.2
-0.23
-0.21
-0.205
-0.19
-0.18
-0.195
-0.215
-0.205
-0.185
-0.195
-0.19
-0.195
-0.205
-0.205
-0.185
-0.185
-0.175
-0.185
-0.19
-0.18
-0.17
-0.16
-0.16
-0.18
-0.2
-0.21
-0.215
-0.17
-0.175
-0.175
-0.185
-0.15
-0.13
-0.12
-0.115
-0.13
-0.13
-0.125
-0.14
-0.105
-0.11
-0.145
-0.15
-0.165
-0.155
-0.15
-0.155
-0.17
-0.195
-0.2
-0.19
-0.165
-0.17
-0.17
-0.185
-0.195
-0.185
-0.16
-0.15
-0.17
-0.19
-0.185
-0.16
-0.15
-0.15
-0.16
-0.16
-0.14
-0.125
-0.1
-0.07
-0.05
-0.035
-0.005
0.065
0.165
0.27
0.405
0.53
0.675
0.82
0.945
1.08
1.19
1.255
1.235
1.14
0.985
0.785
0.57
0.375
0.205
0.07
-0.005
-0.035
-0.04
-0.06
-0.06
-0.085
-0.08
-0.095
-0.13
-0.155
-0.17
-0.165
-0.165
-0.165
-0.185
-0.2
-0.205
-0.195
-0.185
-0.19
-0.2
-0.22
-0.22
-0.205
-0.19
-0.195
-0.21
-0.225
-0.225
-0.215
-0.195
-0.19
-0.2
-0.215
-0.23
-0.21
-0.18
-0.205
-0.21
-0.21
-0.215
-0.195
-0.175
-0.17
-0.185
-0.185
-0.19
-0.165
-0.15
-0.145
-0.14
-0.16
-0.17
-0.14
-0.115
-0.1
-0.115
-0.125
-0.12
-0.09
-0.08
-0.075
-0.09
-0.08
-0.075
-0.06
-0.035
-0.03
-0.02
-0.02
-0.01
0
0.04
0.05
0.05
0.035
0.06
0.08
0.115
0.11
0.12
0.11
0.13
0.15
0.165
0.165
0.17
0.16
0.17
0.165
0.185
0.18
0.155
0.13
0.11
0.095
0.1
0.07
0.03
-0.005
-0.025
-0.025
-0.025
-0.06
-0.08
-0.115
-0.13
-0.145
-0.13
-0.15
-0.17
-0.195
-0.185
-0.18
-0.175
-0.185
-0.205
-0.22
-0.225
-0.23
-0.23
-0.22
-0.23
-0.255
-0.245
-0.24
-0.23
-0.22
-0.22
-0.24
-0.245
-0.255
-0.215
-0.22
-0.215
-0.235
-0.24
-0.225
-0.215
-0.21
-0.215
-0.22
-0.22
-0.21
-0.2
-0.2
-0.205
-0.21
-0.215
-0.205
-0.195
-0.2
-0.2
-0.21
-0.195
-0.205
-0.185
-0.19
-0.205
-0.225
-0.205
-0.205
-0.175
-0.185
-0.19
-0.2
-0.22
-0.2
-0.18
-0.18
-0.195
-0.205
-0.215
-0.21
-0.195
-0.21
-0.205
-0.225
-0.215
-0.22
-0.195
-0.2
-0.2
-0.22
-0.21
-0.215
-0.205
-0.2
-0.215
-0.225
-0.22
-0.215
-0.205
-0.215
-0.215
-0.235
-0.22
-0.205
-0.195
-0.2
-0.21
-0.23
-0.225
-0.21
-0.2
-0.195
-0.21
-0.225
-0.22
-0.215
-0.2
-0.205
-0.21
-0.205
-0.215
-0.225
-0.19
-0.19
-0.21
-0.215
-0.22
-0.21
-0.19
-0.185
-0.19
-0.21
-0.225
-0.215
-0.205
-0.21
-0.215
-0.245
-0.23
-0.23
-0.205
-0.2
-0.215
-0.225
-0.235
-0.225
-0.205
-0.2
-0.225
-0.235
-0.235
-0.23
-0.22
-0.215
-0.215
-0.23
-0.24
-0.215
-0.205
-0.225
-0.23
-0.24
-0.255
-0.24
-0.225
-0.235
-0.23
-0.245
-0.245
-0.23
-0.225
-0.215
-0.22
-0.23
-0.245
-0.23
-0.21
-0.21
-0.22
-0.23
-0.23
-0.225
-0.215
-0.205
-0.215
-0.245
-0.24
-0.23
-0.21
-0.22
-0.22
-0.24
-0.24
-0.225
-0.21
-0.205
-0.215
-0.24
-0.22
-0.215
-0.2
-0.195
-0.2
-0.22
-0.215
-0.205
-0.195
-0.185
-0.21
-0.22
-0.22
-0.21
-0.2
-0.19
-0.205
-0.205
-0.21
-0.21
-0.19
-0.195
-0.19
-0.21
-0.205
-0.185
-0.19
-0.18
-0.205
-0.21
-0.205
-0.2
-0.185
-0.18
-0.195
-0.205
-0.205
-0.2
-0.185
-0.19
-0.195
-0.22
-0.225
-0.23
-0.2
-0.2
-0.19
-0.19
-0.17
-0.14
-0.13
-0.135
-0.145
-0.145
-0.145
-0.135
-0.125
-0.145
-0.165
-0.17
-0.195
-0.19
-0.17
-0.185
-0.19
-0.205
-0.2
-0.2
-0.175
-0.185
-0.18
-0.205
-0.2
-0.185
-0.175
-0.175
-0.18
-0.175
-0.18
-0.175
-0.145
-0.14
-0.15
-0.165
-0.145
-0.12
-0.1
-0.075
-0.055
-0.06
-0.02
0.02
0.095
0.18
0.27
0.365
0.49
0.635
0.78
0.91
1.015
1.11
1.23
1.29
1.24
1.095
0.915
0.705
0.505
0.365
0.22
0.12
0.015
-0.025
-0.03
-0.015
-0.02
-0.04
-0.08
-0.115
-0.13
-0.13
-0.14
-0.15
-0.175
-0.185
-0.195
-0.19
-0.175
-0.165
-0.185
-0.195
-0.195
-0.2
-0.195
-0.195
-0.19
-0.205
-0.225
-0.215
-0.195
-0.185
-0.2
-0.215
-0.22
-0.21
-0.215
-0.205
-0.21
-0.215
-0.22
-0.2
-0.185
-0.2
-0.195
-0.21
-0.2
-0.19
-0.18
-0.175
-0.17
-0.185
-0.185
-0.17
-0.155
-0.16
-0.165
-0.175
-0.16
-0.145
-0.13
-0.12
-0.115
-0.13
-0.135
-0.12
-0.09
-0.075
-0.07
-0.065
-0.055
-0.035
-0.025
0.01
0.01
-0.005
0.005
0.025
0.055
0.075
0.08
0.07
0.09
0.11
0.13
0.13
0.14
0.15
0.145
0.17
0.185
0.19
0.175
0.155
0.14
0.16
0.16
0.145
0.12
0.085
0.06
0.04
0.035
0.015
-0.025
-0.06
-0.07
-0.08
-0.08
-0.1
-0.125
-0.145
-0.16
-0.165
-0.175
-0.175
-0.2
-0.225
-0.23
-0.22
-0.215
-0.215
-0.24
-0.26
-0.25
-0.24
-0.225
-0.225
-0.265
-0.265
-0.265
-0.255
-0.245
-0.245
-0.265
-0.27
-0.28
-0.265
-0.26
-0.255
-0.265
-0.27
-0.265
-0.265
-0.26
-0.24
-0.255
-0.27
-0.265
-0.25
-0.245
-0.255
-0.255
-0.27
-0.26
-0.26
-0.245
-0.24
-0.255
-0.275
-0.265
-0.255
-0.245
-0.25
-0.25
-0.27
-0.255
-0.25
-0.225
-0.225
-0.235
-0.255
-0.265
-0.24
-0.225
-0.235
-0.235
-0.265
-0.26
-0.245
-0.235
-0.22
-0.235
-0.265
-0.255
-0.245
-0.23
-0.225
-0.245
-0.255
-0.265
-0.24
-0.225
-0.23
-0.235
-0.25
-0.24
-0.235
-0.225
-0.23
-0.24
-0.26
-0.245
-0.235
-0.225
-0.23
-0.23
-0.245
-0.25
-0.24
-0.225
-0.225
-0.24
-0.26
-0.255
-0.245
-0.225
-0.225
-0.245
-0.245
-0.25
-0.24
-0.23
-0.22
-0.225
-0.245
-0.245
-0.245
-0.22
-0.215
-0.235
-0.27
-0.275
-0.25
-0.23
-0.23
-0.24
-0.255
-0.265
-0.255
-0.235
-0.23
-0.245
-0.265
-0.265
-0.255
-0.235
-0.235
-0.24
-0.26
-0.265
-0.245
-0.24
-0.235
-0.255
-0.255
-0.265
-0.255
-0.245
-0.24
-0.24
-0.265
-0.255
-0.25
-0.235
-0.235
-0.255
-0.26
-0.265
-0.245
-0.23
-0.235
-0.24
-0.255
-0.25
-0.245
-0.235
-0.225
-0.24
-0.235
-0.235
-0.23
-0.23
-0.21
-0.23
-0.24
-0.235
-0.22
-0.225
-0.205
-0.225
-0.225
-0.225
-0.22
-0.2
-0.205
-0.21
-0.215
-0.225
-0.235
-0.205
-0.2
-0.22
-0.24
-0.23
-0.215
-0.195
-0.2
-0.205
-0.225
-0.235
-0.21
-0.21
-0.21
-0.21
-0.225
-0.22
-0.205
-0.21
-0.205
-0.225
-0.24
-0.25
-0.23
-0.215
-0.21
-0.21
-0.225
-0.23
-0.235
-0.21
-0.21
-0.215
-0.225
-0.215
-0.21
-0.195
-0.2
-0.21
-0.21
-0.215
-0.205
-0.18
-0.185
-0.205
-0.215
-0.23
-0.205
-0.19
-0.17
-0.165
-0.18
-0.18
-0.16
-0.145
-0.135
-0.15
-0.155
-0.165
-0.15
-0.13
-0.135
-0.16
-0.175
-0.175
-0.17
-0.16
-0.17
-0.185
-0.22
-0.21
-0.2
-0.175
-0.175
-0.18
-0.195
-0.2
-0.205
-0.18
-0.155
-0.18
-0.185
-0.19
-0.18
-0.175
-0.175
-0.17
-0.185
-0.18
-0.155
-0.145
-0.135
-0.135
-0.125
-0.115
-0.05
-0.02
0
0.015
0.07
0.155
0.28
0.415
0.545
0.685
0.795
0.92
1.035
1.175
1.29
1.355
1.31
1.185
1.045
0.865
0.67
0.49
0.29
0.14
0.025
-0.045
-0.065
-0.09
-0.085
-0.08
-0.095
-0.09
-0.115
-0.15
-0.18
-0.185
-0.185
-0.18
-0.21
-0.215
-0.225
-0.24
-0.22
-0.22
-0.22
-0.24
-0.25
-0.26
-0.24
-0.245
-0.235
-0.24
-0.255
-0.26
-0.24
-0.235
-0.235
-0.23
-0.24
-0.24
-0.23
-0.235
-0.215
-0.235
-0.24
-0.22
-0.22
-0.2
-0.205
-0.21
-0.23
-0.22
-0.195
-0.18
-0.18
-0.195
-0.2
-0.18
-0.165
-0.15
-0.145
-0.15
-0.16
-0.145
-0.135
-0.12
-0.12
-0.125
-0.12
-0.115
-0.085
-0.07
-0.075
-0.075
-0.085
-0.07
-0.06
-0.025
-0.02
-0.025
-0.015
-0.01
0.015
0.025
0.04
0.03
0.04
0.04
0.05
0.08
0.09
0.095
0.075
0.09
0.11
0.13
0.145
0.125
0.115
0.12
0.13
0.14
0.14
0.11
0.095
0.07
0.07
0.06
0.035
0.01
-0.03
-0.055
-0.06
-0.065
-0.075
-0.095
-0.12
-0.14
-0.145
-0.145
-0.15
-0.175
-0.21
-0.205
-0.2
-0.2
-0.2
-0.21
-0.225
-0.235
-0.23
-0.215
-0.23
-0.24
-0.25
-0.245
-0.225
-0.225
-0.225
-0.23
-0.25
-0.245
-0.225
-0.22
-0.22
-0.23
-0.24
-0.23
-0.23
-0.215
-0.21
-0.22
-0.24
-0.235
-0.225
-0.205
-0.2
-0.21
-0.215
-0.22
-0.21
-0.2
-0.2
-0.21
-0.225
-0.22
-0.215
-0.19
-0.2
-0.215
-0.22
-0.22
-0.215
-0.2
-0.215
-0.195
-0.21
-0.215
-0.21
-0.195
-0.19
-0.205
-0.225
-0.225
-0.225
-0.2
-0.2
-0.22
-0.25
-0.23
-0.22
-0.215
-0.22
-0.24
-0.245
-0.25
-0.235
-0.2
-0.215
-0.225
-0.24
-0.25
-0.235
-0.23
-0.22
-0.235
-0.25
-0.245
-0.25
-0.23
-0.235
-0.24
-0.265
-0.255
-0.235
-0.23
-0.225
-0.23
-0.245
-0.26
-0.225
-0.215
-0.215
-0.225
-0.25
-0.255
-0.24
-0.235
-0.215
-0.23
-0.245
-0.245
-0.225
-0.21
-0.225
-0.235
-0.24
-0.23
-0.24
-0.21
-0.21
-0.22
-0.23
-0.225
-0.225
-0.195
-0.205
-0.22
-0.24
-0.225
-0.225
-0.215
-0.215
-0.2
-0.22
-0.23
-0.215
-0.205
-0.2
-0.22
-0.22
-0.235
-0.21
-0.2
-0.205
-0.21
-0.235
-0.23
-0.215
-0.215
-0.185
-0.225
-0.235
-0.22
-0.205
-0.21
-0.2
-0.225
-0.23
-0.225
-0.215
-0.195
-0.205
-0.215
-0.225
-0.215
-0.23
-0.2
-0.19
-0.21
-0.23
-0.23
-0.215
-0.22
-0.2
-0.205
-0.215
-0.22
-0.205
-0.195
-0.21
-0.21
-0.235
-0.225
-0.22
-0.2
-0.205
-0.205
-0.22
-0.225
-0.225
-0.205
-0.195
-0.215
-0.235
-0.23
-0.225
-0.21
-0.195
-0.21
-0.22
-0.23
-0.205
-0.2
-0.2
-0.21
-0.215
-0.22
-0.2
-0.18
-0.17
-0.18
-0.195
-0.195
-0.175
-0.18
-0.17
-0.18
-0.19
-0.21
-0.18
-0.17
-0.165
-0.17
-0.185
-0.19
-0.17
-0.165
-0.16
-0.185
-0.185
-0.19
-0.17
-0.155
-0.15
-0.16
-0.175
-0.185
-0.16
-0.15
-0.165
-0.165
-0.195
-0.19
-0.18
-0.16
-0.13
-0.125
-0.13
-0.125
-0.11
-0.095
-0.085
-0.1
-0.1
-0.1
-0.095
-0.085
-0.1
-0.12
-0.14
-0.135
-0.13
-0.13
-0.13
-0.145
-0.165
-0.16
-0.15
-0.14
-0.14
-0.15
-0.165
-0.165
-0.14
-0.135
-0.135
-0.145
-0.145
-0.15
-0.145
-0.115
-0.13
-0.14
-0.135
-0.145
-0.13
-0.115
-0.105
-0.095
-0.095
-0.06
-0.015
0.02
0.055
0.08
0.145
0.25
0.37
0.495
0.615
0.745
0.86
0.97
1.075
1.195
1.29
1.29
1.21
1.09
0.925
0.755
0.57
0.375
0.25
0.13
0.05
0.015
0.005
-0.005
-0.01
-0.05
-0.065
-0.06
-0.085
-0.105
-0.14
-0.135
-0.135
-0.13
-0.145
-0.16
-0.17
-0.17
-0.17
-0.155
-0.155
-0.17
-0.185
-0.185
-0.17
-0.165
-0.165
-0.17
-0.19
-0.185
-0.18
-0.16
-0.16
-0.175
-0.18
-0.19
-0.175
-0.16
-0.165
-0.17
-0.18
-0.175
-0.17
-0.15
-0.15
-0.155
-0.17
-0.165
-0.155
-0.135
-0.14
-0.145
-0.15
-0.155
-0.13
-0.13
-0.115
-0.12
-0.14
-0.125
-0.13
-0.095
-0.09
-0.09
-0.085
-0.08
-0.07
-0.045
-0.04
-0.04
-0.06
-0.05
-0.025
0.01
0.02
0.01
-0.005
0.02
0.035
0.06
0.065
0.045
0.075
0.08
0.115
0.13
0.125
0.125
0.13
0.15
0.17
0.195
0.2
0.18
0.175
0.165
0.175
0.175
0.155
0.135
0.11
0.105
0.085
0.08
0.055
0.03
0
-0.01
-0.02
-0.03
-0.055
-0.08
-0.105
-0.12
-0.125
-0.135
-0.15
-0.16
-0.165
-0.185
-0.18
-0.175
-0.17
-0.195
-0.205
-0.215
-0.225
-0.195
-0.205
-0.225
-0.235
-0.235
-0.23
-0.225
-0.2
-0.22
-0.24
-0.23
-0.22
-0.21
-0.21
-0.22
-0.245
-0.235
-0.22
-0.215
-0.22
-0.235
-0.235
-0.235
-0.225
-0.215
-0.22
-0.235
-0.25
-0.26
-0.24
-0.225
-0.215
-0.225
-0.245
-0.24
-0.23
-0.215
-0.2
-0.24
-0.235
-0.23
-0.225
-0.215
-0.205
-0.215
-0.225
-0.225
-0.22
-0.2
-0.215
-0.225
-0.245
-0.245
-0.24
-0.22
-0.225
-0.24
-0.25
-0.245
-0.245
-0.215
-0.225
-0.235
-0.25
-0.235
-0.235
-0.225
-0.225
-0.23
-0.255
-0.24
-0.25
-0.23
-0.22
-0.235
-0.25
-0.25
-0.235
-0.23
-0.23
-0.245
-0.255
-0.255
-0.235
-0.225
-0.23
-0.245
-0.25
-0.24
-0.225
-0.21
-0.19
-0.175
-0.175
-0.145
-0.095
-0.04
0
0.03
0.065
0.1
0.13
0.14
0.1
0.04
-0.05
-0.19
-0.32
-0.485
-0.63
-0.705
-0.7
-0.67
-0.64
-0.625
-0.63
-0.635
-0.67
-0.66
-0.645
-0.64
-0.645
-0.64
-0.655
-0.65
-0.64
-0.64
-0.65
-0.675
-0.695
-0.68
-0.65
-0.595
-0.545
-0.495
-0.425
-0.355
-0.29
-0.245
-0.2
-0.195
-0.195
-0.17
-0.15
-0.13
-0.12
-0.115
-0.135
-0.115
-0.095
-0.07
-0.065
-0.075
-0.08
-0.065
-0.06
-0.04
-0.03
-0.03
-0.035
-0.025
-0.005
0.01
0.02
0.025
0.02
0.025
0.05
0.055
0.07
0.07
0.085
0.085
0.1
0.135
0.145
0.15
0.145
0.17
0.195
0.23
0.25
0.255
0.255
0.27
0.295
0.34
0.36
0.37
0.375
0.39
0.41
0.43
0.435
0.45
0.445
0.46
0.48
0.51
0.515
0.505
0.495
0.515
0.52
0.545
0.555
0.55
0.525
0.5
0.515
0.515
0.495
0.475
0.43
0.43
0.415
0.405
0.37
0.34
0.29
0.25
0.22
0.2
0.145
0.11
0.06
0.05
0.03
0.02
-0.005
-0.055
-0.08
-0.095
-0.105
-0.11
-0.13
-0.155
-0.185
-0.195
-0.2
-0.195
-0.195
-0.23
-0.225
-0.245
-0.235
-0.23
-0.235
-0.25
-0.26
-0.265
-0.26
-0.245
-0.245
-0.25
-0.275
-0.29
-0.27
-0.26
-0.27
-0.255
-0.27
-0.275
-0.27
-0.255
-0.275
-0.275
-0.28
-0.29
-0.29
-0.265
-0.275
-0.285
-0.3
-0.29
-0.295
-0.285
-0.295
-0.29
-0.31
-0.31
-0.3
-0.29
-0.275
-0.3
-0.32
-0.315
-0.305
-0.295
-0.28
-0.3
-0.31
-0.32
-0.31
-0.295
-0.305
-0.31
-0.32
-0.325
-0.32
-0.295
-0.3
-0.32
-0.325
-0.315
-0.315
-0.3
-0.29
-0.31
-0.33
-0.33
-0.305
-0.295
-0.295
-0.305
-0.325
-0.32
-0.305
-0.3
-0.295
-0.305
-0.32
-0.33
-0.32
-0.3
-0.29
-0.305
-0.33
-0.32
-0.315
-0.315
-0.305
-0.31
-0.325
-0.335
-0.315
-0.305
-0.3
-0.31
-0.325
-0.34
-0.32
-0.3
-0.31
-0.315
-0.32
-0.33
-0.315
-0.325
-0.32
-0.325
-0.35
-0.345
-0.33
-0.305
-0.295
-0.32
-0.34
-0.345
-0.32
-0.31
-0.315
-0.33
-0.34
-0.345
-0.33
-0.325
-0.315
-0.335
-0.335
-0.34
-0.33
-0.315
-0.31
-0.325
-0.335
-0.345
-0.33
-0.32
-0.32
-0.325
-0.35
-0.36
-0.35
-0.31
-0.31
-0.33
-0.33
-0.33
-0.32
-0.305
-0.31
-0.32
-0.33
-0.335
-0.31
-0.32
-0.295
-0.315
-0.32
-0.335
-0.335
-0.32
-0.31
-0.335
-0.335
-0.34
-0.315
-0.3
-0.315
-0.305
-0.33
-0.325
-0.32
-0.315
-0.305
-0.315
-0.325
-0.335
-0.31
-0.305
-0.3
-0.315
-0.33
-0.325
-0.32
-0.3
-0.305
-0.31
-0.325
-0.33
-0.32
-0.31
-0.305
-0.315
-0.325
-0.33
-0.315
-0.31
-0.295
-0.31
-0.325
-0.325
-0.32
-0.31
-0.305
-0.305
-0.33
-0.34
-0.32
-0.305
-0.31
-0.315
-0.32
-0.34
-0.325
-0.31
-0.305
-0.305
-0.325
-0.34
-0.335
-0.31
-0.3
-0.315
-0.325
-0.345
-0.325
-0.31
-0.3
-0.31
-0.315
-0.315
-0.315
-0.3
-0.31
-0.3
-0.32
-0.32
-0.305
-0.295
-0.3
-0.305
-0.33
-0.315
-0.325
-0.3
-0.285
-0.295
-0.305
-0.305
-0.295
-0.285
-0.29
-0.3
-0.315
-0.32
-0.295
-0.29
-0.29
-0.29
-0.315
-0.31
-0.29
-0.28
-0.28
-0.3
-0.295
-0.285
-0.28
-0.27
-0.275
-0.29
-0.285
-0.295
-0.295
-0.27
-0.27
-0.295
-0.31
-0.305
-0.29
-0.285
-0.28
-0.29
-0.3
-0.315
-0.31
-0.29
-0.28
-0.28
-0.3
-0.295
-0.3
-0.29
-0.3
-0.285
-0.31
-0.305
-0.3
-0.285
-0.275
-0.28
-0.3
-0.3
-0.3
-0.29
-0.3
-0.295
-0.305
-0.31
-0.305
-0.285
-0.275
-0.3
-0.31
-0.295
-0.3
-0.28
-0.265
-0.295
-0.3
-0.3
-0.29
-0.27
-0.275
-0.28
-0.29
-0.285
-0.29
-0.265
-0.27
-0.27
-0.27
-0.285
-0.27
-0.265
-0.26
-0.255
-0.29
-0.275
-0.265
-0.255
-0.25
-0.245
-0.26
-0.255
-0.24
-0.24
-0.23
-0.23
-0.235
-0.255
-0.25
-0.22
-0.22
-0.225
-0.255
-0.255
-0.24
-0.21
-0.205
-0.195
-0.215
-0.2
-0.19
-0.17
-0.15
-0.18
-0.175
-0.18
-0.185
-0.185
-0.18
-0.205
-0.225
-0.23
-0.22
-0.21
-0.22
-0.24
-0.24
-0.235
-0.245
-0.23
-0.215
-0.235
-0.235
-0.24
-0.235
-0.215
-0.215
-0.21
-0.23
-0.22
-0.205
-0.18
-0.175
-0.165
-0.16
-0.15
-0.115
-0.08
-0.03
0.015
0.09
0.195
0.325
0.475
0.63
0.76
0.875
0.975
1.105
1.21
1.27
1.205
1.055
0.865
0.65
0.48
0.295
0.135
-0.01
-0.09
-0.115
-0.1
-0.09
-0.125
-0.14
-0.18
-0.195
-0.2
-0.21
-0.23
-0.245
-0.27
-0.26
-0.255
-0.25
-0.26
-0.29
-0.3
-0.275
-0.26
-0.265
-0.28
-0.305
-0.29
-0.275
-0.255
-0.255
-0.29
-0.3
-0.29
-0.275
-0.265
-0.255
-0.265
-0.27
-0.27
-0.265
-0.26
-0.25
-0.25
-0.265
-0.285
-0.255
-0.245
-0.225
-0.245
-0.255
-0.24
-0.24
-0.21
-0.225
-0.215
-0.23
-0.22
-0.205
-0.185
-0.18
-0.185
-0.19
-0.18
-0.175
-0.15
-0.145
-0.145
-0.145
-0.135
-0.115
-0.09
-0.085
-0.095
-0.095
-0.075
-0.05
-0.015
-0.01
-0.02
-0.035
-0.005
0.01
0.025
0.035
0.05
0.045
0.045
0.065
0.08
0.08
0.09
0.065
0.08
0.075
0.085
0.08
0.07
0.055
0.045
0.03
0.03
0.015
-0.025
-0.05
-0.08
-0.085
-0.09
-0.11
-0.13
-0.17
-0.19
-0.19
-0.185
-0.195
-0.215
-0.24
-0.24
-0.235
-0.24
-0.25
-0.255
-0.26
-0.26
-0.255
-0.245
-0.265
-0.26
-0.27
-0.27
-0.26
-0.255
-0.26
-0.26
-0.27
-0.275
-0.26
-0.26
-0.25
-0.26
-0.27
-0.28
-0.255
-0.26
-0.245
-0.25
-0.28
-0.285
-0.26
-0.265
-0.255
-0.25
-0.27
-0.265
-0.255
-0.235
-0.24
-0.25
-0.255
-0.265
-0.245
-0.235
-0.245
-0.25
-0.255
-0.26
-0.255
-0.245
-0.25
-0.245
-0.265
-0.27
-0.27
-0.245
-0.245
-0.27
-0.28
-0.28
-0.27
-0.255
-0.26
-0.275
-0.28
-0.29
-0.27
-0.26
-0.275
-0.29
-0.29
-0.3
-0.3
-0.275
-0.27
-0.28
-0.3
-0.305
-0.3
-0.285
-0.285
-0.29
-0.295
-0.3
-0.29
-0.28
-0.285
-0.295
-0.3
-0.3
-0.295
-0.28
-0.285
-0.3
-0.305
-0.315
-0.3
-0.295
-0.295
-0.305
-0.32
-0.31
-0.3
-0.295
-0.295
-0.295
-0.32
-0.305
-0.305
-0.29
-0.285
-0.29
-0.31
-0.31
-0.29
-0.29
-0.28
-0.29
-0.305
-0.305
-0.295
-0.285
-0.28
-0.285
-0.3
-0.3
-0.295
-0.28
-0.29
-0.295
-0.305
-0.3
-0.295
-0.295
-0.28
-0.29
-0.315
-0.305
-0.285
-0.27
-0.275
-0.29
-0.29
-0.3
-0.31
-0.275
-0.27
-0.27
-0.285
-0.285
-0.275
-0.265
-0.265
-0.28
-0.29
-0.285
-0.27
-0.255
-0.255
-0.265
-0.28
-0.275
-0.275
-0.26
-0.26
-0.27
-0.285
-0.28
-0.265
-0.275
-0.255
-0.27
-0.275
-0.275
-0.265
-0.24
-0.245
-0.245
-0.27
-0.265
-0.265
-0.245
-0.245
-0.245
-0.265
-0.265
-0.265
-0.235
-0.235
-0.245
-0.255
-0.265
-0.255
-0.225
-0.23
-0.235
-0.255
-0.26
-0.23
-0.225
-0.205
-0.22
-0.24
-0.245
-0.235
-0.22
-0.225
-0.215
-0.225
-0.205
-0.185
-0.175
-0.16
-0.17
-0.16
-0.17
-0.17
-0.16
-0.15
-0.155
-0.18
-0.185
-0.2
-0.18
-0.2
-0.205
-0.22
-0.22
-0.215
-0.22
-0.205
-0.205
-0.205
-0.215
-0.21
-0.19
-0.18
-0.185
-0.205
-0.2
-0.19
-0.175
-0.175
-0.18
-0.195
-0.2
-0.18
-0.15
-0.145
-0.135
-0.11
-0.095
-0.055
-0.02
0.02
0.09
0.16
0.29
0.4
0.535
0.68
0.8
0.905
1.015
1.145
1.25
1.25
1.16
1
0.815
0.625
0.45
0.295
0.135
0.005
-0.07
-0.085
-0.055
-0.055
-0.075
-0.12
-0.13
-0.14
-0.16
-0.165
-0.19
-0.195
-0.215
-0.215
-0.2
-0.2
-0.205
-0.24
-0.235
-0.235
-0.22
-0.225
-0.225
-0.245
-0.23
-0.23
-0.23
-0.23
-0.22
-0.24
-0.245
-0.225
-0.215
-0.2
-0.225
-0.23
-0.245
-0.225
-0.205
-0.22
-0.22
-0.225
-0.225
-0.205
-0.19
-0.185
-0.19
-0.19
-0.19
-0.175
-0.17
-0.155
-0.16
-0.17
-0.16
-0.145
-0.15
-0.125
-0.135
-0.13
-0.14
-0.12
-0.1
-0.1
-0.095
-0.1
-0.095
-0.075
-0.06
-0.055
-0.04
-0.05
-0.04
-0.025
0
0
0.01
0
0.025
0.035
0.055
0.075
0.065
0.07
0.06
0.08
0.1
0.09
0.1
0.095
0.1
0.095
0.135
0.135
0.125
0.095
0.08
0.085
0.075
0.065
0.04
-0.005
0
-0.015
-0.025
-0.045
-0.065
-0.105
-0.11
-0.125
-0.135
-0.15
-0.155
-0.175
-0.19
-0.205
-0.19
-0.19
-0.205
-0.22
-0.225
-0.225
-0.22
-0.24
-0.225
-0.25
-0.25
-0.235
-0.23
-0.23
-0.25
-0.255
-0.25
-0.245
-0.225
-0.23
-0.255
-0.26
-0.26
-0.25
-0.245
-0.235
-0.24
-0.24
-0.25
-0.245
-0.235
-0.22
-0.24
-0.26
-0.265
-0.245
-0.255
-0.26
-0.26
-0.265
-0.265
-0.245
-0.24
-0.245
-0.255
-0.265
-0.26
-0.25
-0.25
-0.245
-0.25
-0.26
-0.26
-0.26
-0.24
-0.24
-0.27
-0.27
-0.275
-0.27
-0.255
-0.245
-0.255
-0.27
-0.265
-0.255
-0.25
-0.25
-0.27
-0.275
-0.27
-0.26
-0.245
-0.245
-0.255
-0.28
-0.285
-0.28
-0.255
-0.265
-0.275
-0.29
-0.295
-0.29
-0.265
-0.265
-0.28
-0.28
-0.29
-0.28
-0.26
-0.26
-0.265
-0.29
-0.285
-0.28
-0.255
-0.255
-0.275
-0.285
-0.285
-0.285
-0.265
-0.265
-0.285
-0.29
-0.295
-0.27
-0.265
-0.265
-0.27
-0.285
-0.285
-0.275
-0.26
-0.265
-0.26
-0.285
-0.3
-0.275
-0.255
-0.265
-0.265
-0.285
-0.29
-0.28
-0.27
-0.27
-0.275
-0.29
-0.285
-0.28
-0.27
-0.27
-0.275
-0.29
-0.295
-0.285
-0.265
-0.27
-0.275
-0.285
-0.285
-0.28
-0.255
-0.26
-0.27
-0.285
-0.29
-0.275
-0.26
-0.27
-0.265
-0.285
-0.27
-0.265
-0.265
-0.275
-0.27
-0.27
-0.275
-0.275
-0.255
-0.26
-0.255
-0.265
-0.275
-0.265
-0.245
-0.25
-0.265
-0.27
-0.27
-0.26
-0.255
-0.25
-0.255
-0.26
-0.27
-0.265
-0.25
-0.25
-0.265
-0.275
-0.275
-0.255
-0.255
-0.25
-0.265
-0.255
-0.26
-0.245
-0.225
-0.235
-0.23
-0.255
-0.265
-0.25
-0.23
-0.23
-0.245
-0.26
-0.28
-0.255
-0.225
-0.215
-0.235
-0.24
-0.225
-0.225
-0.195
-0.18
-0.19
-0.185
-0.205
-0.195
-0.18
-0.18
-0.205
-0.215
-0.23
-0.23
-0.235
-0.23
-0.235
-0.245
-0.26
-0.245
-0.24
-0.215
-0.225
-0.235
-0.24
-0.225
-0.215
-0.22
-0.24
-0.25
-0.24
-0.24
-0.225
-0.215
-0.22
-0.23
-0.22
-0.2
-0.185
-0.175
-0.175
-0.18
-0.16
-0.11
-0.08
-0.05
-0.02
0.03
0.115
0.235
0.375
0.515
0.65
0.775
0.875
1.01
1.145
1.24
1.27
1.225
1.105
0.925
0.73
0.525
0.34
0.185
0.015
-0.08
-0.135
-0.15
-0.145
-0.145
-0.155
-0.16
-0.16
-0.17
-0.19
-0.24
-0.23
-0.24
-0.24
-0.235
-0.25
-0.28
-0.275
-0.275
-0.25
-0.27
-0.28
-0.285
-0.31
-0.285
-0.275
-0.28
-0.29
-0.31
-0.31
-0.29
-0.275
-0.285
-0.295
-0.315
-0.3
-0.3
-0.265
-0.27
-0.3
-0.295
-0.3
-0.29
-0.265
-0.285
-0.26
-0.28
-0.275
-0.265
-0.265
-0.245
-0.26
-0.27
-0.27
-0.255
-0.235
-0.235
-0.23
-0.24
-0.235
-0.22
-0.205
-0.2
-0.19
-0.215
-0.2
-0.19
-0.165
-0.15
-0.145
-0.165
-0.15
-0.13
-0.095
-0.085
-0.085
-0.095
-0.085
-0.06
-0.04
-0.035
-0.035
-0.035
-0.05
-0.015
0.01
0.02
0.025
0.02
0.025
0.045
0.06
0.07
0.065
0.055
0.06
0.07
0.085
0.08
0.07
0.035
0.03
0.02
0.02
0.01
-0.01
-0.035
-0.05
-0.065
-0.07
-0.1
-0.115
-0.15
-0.17
-0.17
-0.165
-0.18
-0.205
-0.22
-0.24
-0.23
-0.22
-0.23
-0.25
-0.275
-0.275
-0.27
-0.255
-0.255
-0.27
-0.295
-0.295
-0.29
-0.28
-0.27
-0.285
-0.295
-0.3
-0.3
-0.28
-0.285
-0.285
-0.29
-0.3
-0.29
-0.28
-0.285
-0.3
-0.295
-0.3
-0.285
-0.285
-0.275
-0.275
-0.295
-0.285
-0.28
-0.27
-0.27
-0.275
-0.3
-0.29
-0.275
-0.265
-0.265
-0.265
-0.28
-0.29
-0.275
-0.26
-0.275
-0.285
-0.31
-0.29
-0.28
-0.26
-0.27
-0.29
-0.295
-0.29
-0.295
-0.275
-0.28
-0.29
-0.31
-0.3
-0.3
-0.275
-0.28
-0.285
-0.315
-0.32
-0.285
-0.29
-0.29
-0.315
-0.33
-0.32
-0.325
-0.29
-0.295
-0.305
-0.325
-0.325
-0.325
-0.3
-0.31
-0.32
-0.335
-0.335
-0.32
-0.305
-0.3
-0.305
-0.325
-0.325
-0.335
-0.31
-0.3
-0.315
-0.325
-0.34
-0.315
-0.295
-0.295
-0.315
-0.335
-0.33
-0.325
-0.305
-0.315
-0.31
-0.32
-0.32
-0.32
-0.315
-0.305
-0.31
-0.32
-0.33
-0.31
-0.28
-0.285
-0.3
-0.31
-0.315
-0.3
-0.29
-0.29
-0.295
-0.315
-0.315
-0.31
-0.285
-0.295
-0.3
-0.315
-0.315
-0.305
-0.3
-0.295
-0.295
-0.31
-0.31
-0.295
-0.27
-0.27
-0.285
-0.305
-0.305
-0.295
-0.275
-0.28
-0.305
-0.295
-0.32
-0.305
-0.28
-0.29
-0.285
-0.305
-0.31
-0.3
-0.27
-0.275
-0.29
-0.305
-0.31
-0.31
-0.28
-0.275
-0.28
-0.31
-0.315
-0.29
-0.285
-0.285
-0.285
-0.295
-0.305
-0.28
-0.275
-0.27
-0.28
-0.295
-0.31
-0.29
-0.28
-0.285
-0.29
-0.3
-0.305
-0.295
-0.28
-0.275
-0.29
-0.305
-0.305
-0.29
-0.28
-0.285
-0.285
-0.295
-0.3
-0.29
-0.285
-0.265
-0.27
-0.29
-0.295
-0.28
-0.265
-0.27
-0.285
-0.3
-0.305
-0.3
-0.285
-0.265
-0.255
-0.26
-0.255
-0.235
-0.22
-0.205
-0.21
-0.22
-0.23
-0.21
-0.21
-0.215
-0.23
-0.245
-0.26
-0.255
-0.255
-0.26
-0.275
-0.305
-0.29
-0.275
-0.27
-0.26
-0.265
-0.285
-0.29
-0.27
-0.265
-0.265
-0.265
-0.27
-0.27
-0.27
-0.245
-0.23
-0.245
-0.255
-0.255
-0.245
-0.215
-0.21
-0.2
-0.185
-0.16
-0.115
-0.075
-0.03
0.035
0.13
0.24
0.37
0.5
0.645
0.765
0.87
0.975
1.13
1.215
1.19
1.08
0.905
0.715
0.52
0.355
0.205
0.055
-0.06
-0.11
-0.13
-0.13
-0.135
-0.155
-0.195
-0.21
-0.22
-0.23
-0.24
-0.255
-0.275
-0.28
-0.28
-0.28
-0.285
-0.305
-0.33
-0.33
-0.32
-0.31
-0.305
-0.31
-0.335
-0.335
-0.32
-0.305
-0.325
-0.34
-0.335
-0.35
-0.35
-0.325
-0.325
-0.32
-0.345
-0.33
-0.325
-0.305
-0.315
-0.305
-0.315
-0.31
-0.305
-0.28
-0.275
-0.305
-0.3
-0.305
-0.285
-0.265
-0.265
-0.28
-0.275
-0.28
-0.265
-0.24
-0.24
-0.245
-0.25
-0.24
-0.22
-0.2
-0.185
-0.205
-0.21
-0.195
-0.19
-0.155
-0.15
-0.165
-0.15
-0.14
-0.125
-0.095
-0.085
-0.09
-0.09
-0.07
-0.055
-0.025
-0.03
-0.025
-0.02
-0.015
0
0.015
0.035
0.03
0.03
0.03
0.055
0.065
0.055
0.04
0.035
0.025
0.02
0
-0.005
-0.03
-0.07
-0.075
-0.08
-0.08
-0.11
-0.135
-0.175
-0.19
-0.19
-0.195
-0.225
-0.24
-0.27
-0.285
-0.285
-0.27
-0.27
-0.305
-0.315
-0.315
-0.31
-0.3
-0.315
-0.315
-0.335
-0.34
-0.335
-0.325
-0.325
-0.335
-0.345
-0.345
-0.34
-0.33
-0.325
-0.34
-0.35
-0.35
-0.35
-0.335
-0.335
-0.34
-0.36
-0.355
-0.335
-0.32
-0.32
-0.335
-0.365
-0.37
-0.355
-0.34
-0.33
-0.33
-0.35
-0.35
-0.33
-0.33
-0.32
-0.33
-0.34
-0.345
-0.33
-0.325
-0.315
-0.34
-0.34
-0.35
-0.33
-0.325
-0.32
-0.32
-0.33
-0.335
-0.32
-0.31
-0.33
-0.325
-0.335
-0.325
-0.335
-0.315
-0.315
-0.31
-0.325
-0.33
-0.325
-0.32
-0.31
-0.31
-0.335
-0.32
-0.325
-0.32
-0.32
-0.33
-0.345
-0.335
-0.32
-0.33
-0.325
-0.33
-0.34
-0.34
-0.345
-0.33
-0.32
-0.33
-0.35
-0.34
-0.34
-0.32
-0.33
-0.335
-0.35
-0.35
-0.34
-0.325
-0.33
-0.33
-0.355
-0.35
-0.345
-0.33
-0.33
-0.345
-0.35
-0.345
-0.345
-0.345
-0.33
-0.33
-0.34
-0.35
-0.34
-0.335
-0.33
-0.33
-0.35
-0.365
-0.355
-0.33
-0.335
-0.34
-0.365
-0.365
-0.35
-0.335
-0.33
-0.34
-0.365
-0.36
-0.34
-0.335
-0.325
-0.34
-0.355
-0.34
-0.35
-0.335
-0.33
-0.34
-0.35
-0.36
-0.34
-0.33
-0.33
-0.335
-0.365
-0.36
-0.345
-0.335
-0.32
-0.34
-0.355
-0.345
-0.34
-0.32
-0.325
-0.33
-0.335
-0.34
-0.335
-0.315
-0.315
-0.325
-0.335
-0.34
-0.335
-0.31
-0.31
-0.325
-0.335
-0.335
-0.325
-0.315
-0.305
-0.31
-0.325
-0.34
-0.325
-0.305
-0.31
-0.32
-0.32
-0.325
-0.32
-0.295
-0.295
-0.31
-0.315
-0.315
-0.305
-0.29
-0.3
-0.295
-0.31
-0.315
-0.295
-0.275
-0.27
-0.285
-0.29
-0.305
-0.285
-0.28
-0.27
-0.29
-0.29
-0.295
-0.28
-0.27
-0.28
-0.285
-0.31
-0.295
-0.28
-0.245
-0.25
-0.245
-0.265
-0.27
-0.24
-0.23
-0.215
-0.23
-0.255
-0.245
-0.235
-0.23
-0.245
-0.255
-0.28
-0.29
-0.285
-0.275
-0.285
-0.295
-0.305
-0.3
-0.285
-0.29
-0.28
-0.28
-0.285
-0.295
-0.28
-0.265
-0.265
-0.285
-0.29
-0.28
-0.28
-0.27
-0.26
-0.265
-0.27
-0.27
-0.25
-0.23
-0.225
-0.22
-0.205
-0.165
-0.135
-0.085
-0.045
0.015
0.105
0.215
0.365
0.5
0.65
0.745
0.835
0.96
1.1
1.195
1.2
1.12
0.965
0.775
0.58
0.4
0.235
0.08
-0.065
-0.155
-0.19
-0.175
-0.165
-0.17
-0.195
-0.21
-0.215
-0.22
-0.235
-0.26
-0.285
-0.295
-0.29
-0.275
-0.285
-0.29
-0.31
-0.32
-0.295
-0.295
-0.29
-0.3
-0.315
-0.31
-0.3
-0.3
-0.305
-0.31
-0.32
-0.315
-0.3
-0.29
-0.29
-0.285
-0.305
-0.315
-0.295
-0.285
-0.28
-0.29
-0.305
-0.315
-0.29
-0.27
-0.265
-0.28
-0.29
-0.28
-0.265
-0.265
-0.25
-0.25
-0.27
-0.265
-0.255
-0.22
-0.22
-0.22
-0.23
-0.235
-0.22
-0.195
-0.19
-0.195
-0.205
-0.19
-0.17
-0.145
-0.145
-0.135
-0.14
-0.135
-0.115
-0.08
-0.085
-0.07
-0.07
-0.075
-0.035
0
0.005
-0.005
-0.005
0.01
0.025
0.05
0.06
0.075
0.035
0.03
0.035
0.08
0.085
0.07
0.06
0.045
0.045
0.045
0.04
0.01
-0.025
-0.045
-0.05
-0.055
-0.07
-0.11
-0.135
-0.145
-0.155
-0.155
-0.165
-0.195
-0.215
-0.23
-0.24
-0.225
-0.24
-0.25
-0.265
-0.28
-0.27
-0.275
-0.28
-0.285
-0.3
-0.295
-0.285
-0.27
-0.28
-0.295
-0.31
-0.3
-0.285
-0.28
-0.275
-0.29
-0.295
-0.305
-0.305
-0.285
-0.275
-0.29
-0.295
-0.29
-0.29
-0.265
-0.275
-0.28
-0.295
-0.295
-0.285
-0.28
-0.275
-0.275
-0.29
-0.3
-0.29
-0.275
-0.275
-0.28
-0.28
-0.295
-0.28
-0.27
-0.275
-0.29
-0.3
-0.295
-0.295
-0.28
-0.275
-0.285
-0.29
-0.29
-0.29
-0.275
-0.28
-0.295
-0.305
-0.295
-0.295
-0.28
-0.285
-0.295
-0.295
-0.315
-0.295
-0.295
-0.28
-0.28
-0.3
-0.305
-0.29
-0.29
-0.29
-0.29
-0.3
-0.305
-0.305
-0.275
-0.285
-0.305
-0.295
-0.3
-0.29
-0.285
-0.275
-0.29
-0.295
-0.285
-0.29
-0.27
-0.27
-0.275
-0.28
-0.285
-0.28
-0.265
-0.26
-0.265
-0.28
-0.29
-0.275
-0.275
-0.25
-0.275
-0.285
-0.275
-0.275
-0.25
-0.26
-0.275
-0.29
-0.285
-0.27
-0.265
-0.26
-0.27
-0.28
-0.285
-0.27
-0.265
-0.25
-0.26
-0.285
-0.285
-0.27
-0.26
-0.26
-0.255
-0.27
-0.27
-0.27
-0.255
-0.26
-0.26
-0.27
-0.28
-0.26
-0.245
-0.245
-0.255
-0.265
-0.27
-0.26
-0.255
-0.255
-0.255
-0.275
-0.265
-0.26
-0.265
-0.24
-0.25
-0.265
-0.27
-0.255
-0.25
-0.245
-0.255
-0.26
-0.265
-0.26
-0.245
-0.24
-0.25
-0.26
-0.27
-0.24
-0.245
-0.23
-0.235
-0.255
-0.265
-0.26
-0.23
-0.225
-0.235
-0.25
-0.265
-0.25
-0.225
-0.225
-0.24
-0.245
-0.25
-0.23
-0.215
-0.23
-0.23
-0.245
-0.24
-0.23
-0.22
-0.205
-0.22
-0.23
-0.235
-0.22
-0.195
-0.205
-0.215
-0.23
-0.235
-0.2
-0.19
-0.175
-0.165
-0.18
-0.175
-0.155
-0.14
-0.15
-0.145
-0.165
-0.175
-0.17
-0.16
-0.165
-0.165
-0.195
-0.2
-0.19
-0.195
-0.19
-0.195
-0.215
-0.21
-0.195
-0.185
-0.195
-0.18
-0.21
-0.215
-0.185
-0.175
-0.175
-0.18
-0.195
-0.195
-0.175
-0.14
-0.125
-0.12
-0.12
-0.095
-0.065
0
0.04
0.085
0.145
0.235
0.355
0.46
0.595
0.705
0.795
0.885
0.98
1.06
1.075
0.99
0.88
0.75
0.605
0.475
0.33
0.2
0.075
0.015
-0.015
-0.035
-0.04
-0.075
-0.11
-0.12
-0.15
-0.155
-0.165
-0.2
-0.22
-0.22
-0.22
-0.215
-0.22
-0.25
-0.245
-0.245
-0.235
-0.225
-0.235
-0.245
-0.25
-0.26
-0.25
-0.24
-0.235
-0.245
-0.245
-0.26
-0.24
-0.245
-0.235
-0.24
-0.245
-0.235
-0.225
-0.225
-0.22
-0.215
-0.235
-0.23
-0.23
-0.205
-0.2
-0.21
-0.22
-0.21
-0.19
-0.165
-0.165
-0.165
-0.17
-0.175
-0.155
-0.12
-0.125
-0.115
-0.13
-0.13
-0.105
-0.075
-0.075
-0.065
-0.07
-0.09
-0.06
-0.035
-0.01
-0.01
-0.015
0
0.025
0.055
0.06
0.055
0.05
0.065
0.085
0.11
0.115
0.1
0.1
0.115
0.12
0.155
0.155
0.155
0.13
0.13
0.11
0.095
0.085
0.075
0.035
0.02
0.025
0.01
-0.005
-0.04
-0.075
-0.09
-0.1
-0.105
-0.13
-0.15
-0.165
-0.19
-0.175
-0.18
-0.185
-0.2
-0.215
-0.23
-0.23
-0.23
-0.215
-0.225
-0.25
-0.255
-0.24
-0.225
-0.235
-0.235
-0.26
-0.255
-0.255
-0.245
-0.23
-0.25
-0.275
-0.275
-0.255
-0.245
-0.26
-0.255
-0.27
-0.255
-0.245
-0.22
-0.245
-0.24
-0.25
-0.255
-0.26
-0.24
-0.235
-0.265
-0.255
-0.28
-0.265
-0.245
-0.235
-0.25
-0.255
-0.26
-0.265
-0.235
-0.24
-0.245
-0.26
-0.265
-0.245
-0.235
-0.245
-0.24
-0.26
-0.265
-0.27
-0.235
-0.23
-0.25
-0.26
-0.28
-0.25
-0.225
-0.245
-0.25
-0.27
-0.27
-0.265
-0.245
-0.24
-0.25
-0.25
-0.26
-0.26
-0.255
-0.25
-0.25
-0.265
-0.255
-0.26
-0.24
-0.245
-0.245
-0.26
-0.27
-0.255
-0.24
-0.25
-0.255
-0.27
-0.27
-0.255
-0.255
-0.245
-0.26
-0.27
-0.275
-0.265
-0.245
-0.25
-0.255
-0.27
-0.285
-0.265
-0.255
-0.255
-0.26
-0.27
-0.27
-0.26
-0.255
-0.25
-0.265
-0.27
-0.275
-0.265
-0.26
-0.26
-0.275
-0.28
-0.29
-0.27
-0.26
-0.265
-0.26
-0.265
-0.27
-0.275
-0.265
-0.255
-0.27
-0.295
-0.275
-0.265
-0.255
-0.25
-0.265
-0.27
-0.275
-0.265
-0.255
-0.26
-0.28
-0.29
-0.28
-0.275
-0.25
-0.255
-0.265
-0.28
-0.295
-0.275
-0.26
-0.27
-0.27
-0.285
-0.285
-0.285
-0.265
-0.26
-0.265
-0.28
-0.29
-0.28
-0.27
-0.255
-0.27
-0.295
-0.295
-0.295
-0.27
-0.265
-0.27
-0.28
-0.285
-0.28
-0.275
-0.26
-0.28
-0.285
-0.28
-0.29
-0.26
-0.27
-0.28
-0.28
-0.29
-0.28
-0.27
-0.26
-0.27
-0.275
-0.285
-0.26
-0.25
-0.255
-0.255
-0.275
-0.27
-0.255
-0.25
-0.255
-0.255
-0.26
-0.26
-0.26
-0.245
-0.26
-0.25
-0.27
-0.295
-0.27
-0.245
-0.235
-0.22
-0.22
-0.21
-0.195
-0.185
-0.185
-0.195
-0.22
-0.21
-0.2
-0.195
-0.2
-0.215
-0.23
-0.235
-0.235
-0.23
-0.23
-0.24
-0.27
-0.27
-0.255
-0.24
-0.22
-0.225
-0.245
-0.25
-0.24
-0.22
-0.23
-0.24
-0.245
-0.25
-0.245
-0.21
-0.205
-0.215
-0.21
-0.2
-0.18
-0.145
-0.12
-0.095
-0.085
-0.065
0
0.095
0.2
0.32
0.45
0.59
0.76
0.895
1.015
1.14
1.225
1.24
1.175
1.04
0.83
0.595
0.365
0.195
0.04
-0.075
-0.12
-0.15
-0.14
-0.155
-0.155
-0.16
-0.18
-0.2
-0.215
-0.235
-0.24
-0.235
-0.235
-0.25
-0.27
-0.29
-0.275
-0.26
-0.255
-0.27
-0.285
-0.29
-0.275
-0.275
-0.27
-0.27
-0.3
-0.295
-0.275
-0.26
-0.255
-0.265
-0.285
-0.28
-0.275
-0.28
-0.255
-0.26
-0.275
-0.28
-0.265
-0.24
-0.23
-0.24
-0.255
-0.255
-0.235
-0.225
-0.215
-0.22
-0.23
-0.215
-0.21
-0.185
-0.2
-0.2
-0.205
-0.215
-0.19
-0.165
-0.16
-0.15
-0.165
-0.16
-0.135
-0.11
-0.105
-0.095
-0.1
-0.09
-0.06
-0.035
-0.02
-0.025
-0.02
-0.025
0.01
0.03
0.05
0.045
0.04
0.07
0.08
0.105
0.115
0.115
0.095
0.11
0.125
0.145
0.13
0.125
0.1
0.085
0.095
0.075
0.07
0.04
0.015
-0.025
-0.03
-0.035
-0.06
-0.085
-0.115
-0.15
-0.165
-0.155
-0.175
-0.195
-0.215
-0.235
-0.24
-0.225
-0.245
-0.26
-0.285
-0.295
-0.29
-0.275
-0.27
-0.28
-0.3
-0.31
-0.29
-0.295
-0.285
-0.3
-0.315
-0.32
-0.315
-0.305
-0.31
-0.32
-0.325
-0.32
-0.305
-0.295
-0.3
-0.305
-0.33
-0.325
-0.315
-0.3
-0.305
-0.3
-0.315
-0.315
-0.31
-0.3
-0.295
-0.305
-0.325
-0.32
-0.295
-0.295
-0.295
-0.3
-0.32
-0.31
-0.31
-0.305
-0.305
-0.31
-0.31
-0.315
-0.32
-0.295
-0.305
-0.295
-0.32
-0.32
-0.305
-0.3
-0.29
-0.315
-0.32
-0.32
-0.31
-0.3
-0.3
-0.305
-0.32
-0.32
-0.315
-0.315
-0.305
-0.31
-0.32
-0.325
-0.315
-0.305
-0.29
-0.305
-0.33
-0.325
-0.31
-0.3
-0.29
-0.31
-0.325
-0.32
-0.31
-0.305
-0.31
-0.315
-0.325
-0.32
-0.305
-0.295
-0.29
-0.295
-0.31
-0.305
-0.31
-0.29
-0.28
-0.29
-0.31
-0.31
-0.305
-0.3
-0.285
-0.31
-0.315
-0.315
-0.305
-0.29
-0.29
-0.295
-0.285
-0.315
-0.305
-0.3
-0.29
-0.29
-0.305
-0.3
-0.285
-0.27
-0.28
-0.295
-0.315
-0.3
-0.29
-0.28
-0.265
-0.29
-0.31
-0.31
-0.285
-0.28
-0.28
-0.29
-0.3
-0.3
-0.285
-0.28
-0.27
-0.28
-0.3
-0.295
-0.29
-0.275
-0.27
-0.285
-0.285
-0.295
-0.285
-0.26
-0.27
-0.29
-0.285
-0.285
-0.275
-0.265
-0.255
-0.265
-0.28
-0.275
-0.26
-0.255
-0.25
-0.255
-0.275
-0.275
-0.255
-0.26
-0.255
-0.265
-0.285
-0.28
-0.27
-0.245
-0.255
-0.26
-0.28
-0.285
-0.275
-0.26
-0.275
-0.27
-0.285
-0.285
-0.28
-0.26
-0.265
-0.26
-0.275
-0.285
-0.27
-0.255
-0.25
-0.265
-0.27
-0.26
-0.255
-0.25
-0.245
-0.25
-0.26
-0.25
-0.26
-0.26
-0.25
-0.265
-0.27
-0.275
-0.28
-0.265
-0.245
-0.23
-0.215
-0.21
-0.195
-0.18
-0.18
-0.19
-0.2
-0.195
-0.185
-0.19
-0.205
-0.2
-0.23
-0.235
-0.23
-0.225
-0.225
-0.25
-0.28
-0.265
-0.25
-0.24
-0.24
-0.255
-0.27
-0.26
-0.26
-0.235
-0.225
-0.24
-0.265
-0.255
-0.24
-0.22
-0.21
-0.23
-0.215
-0.23
-0.205
-0.17
-0.13
-0.12
-0.1
-0.065
0
0.11
0.235
0.35
0.465
0.59
0.735
0.86
0.96
1.08
1.17
1.185
1.135
1.025
0.845
0.625
0.415
0.22
0.105
-0.005
-0.085
-0.145
-0.165
-0.175
-0.17
-0.16
-0.185
-0.22
-0.25
-0.265
-0.27
-0.265
-0.255
-0.265
-0.29
-0.305
-0.3
-0.29
-0.29
-0.3
-0.32
-0.325
-0.31
-0.3
-0.295
-0.295
-0.315
-0.31
-0.31
-0.29
-0.28
-0.295
-0.31
-0.305
-0.29
-0.285
-0.275
-0.27
-0.3
-0.305
-0.29
-0.28
-0.26
-0.28
-0.275
-0.295
-0.27
-0.265
-0.25
-0.255
-0.26
-0.25
-0.245
-0.23
-0.225
-0.235
-0.245
-0.24
-0.21
-0.205
-0.2
-0.2
-0.2
-0.195
-0.19
-0.165
-0.14
-0.135
-0.14
-0.13
-0.12
-0.09
-0.075
-0.08
-0.075
-0.07
-0.055
-0.035
-0.015
-0.02
-0.02
-0.005
0.02
0.03
0.035
0.04
0.04
0.045
0.06
0.075
0.08
0.08
0.065
0.06
0.055
0.05
0.04
0.01
-0.01
-0.045
-0.07
-0.06
-0.08
-0.125
-0.135
-0.165
-0.18
-0.185
-0.205
-0.23
-0.255
-0.27
-0.265
-0.265
-0.275
-0.285
-0.31
-0.32
-0.32
-0.31
-0.315
-0.33
-0.35
-0.355
-0.355
-0.36
-0.34
-0.355
-0.38
-0.38
-0.38
-0.355
-0.345
-0.375
-0.39
-0.39
-0.37
-0.36
-0.35
-0.375
-0.385
-0.405
-0.38
-0.37
-0.375
-0.39
-0.4
-0.4
-0.39
-0.37
-0.385
-0.4
-0.395
-0.405
-0.39
-0.37
-0.38
-0.39
-0.39
-0.415
-0.395
-0.39
-0.39
-0.4
-0.42
-0.425
-0.405
-0.395
-0.395
-0.405
-0.415
-0.425
-0.405
-0.405
-0.4
-0.4
-0.42
-0.425
-0.41
-0.395
-0.41
-0.41
-0.425
-0.425
-0.425
-0.395
-0.4
-0.41
-0.43
-0.435
-0.435
-0.415
-0.42
-0.43
-0.45
-0.46
-0.46
-0.445
-0.42
-0.435
-0.45
-0.465
-0.445
-0.44
-0.43
-0.445
-0.47
-0.475
-0.465
-0.445
-0.44
-0.445
-0.46
-0.455
-0.45
-0.445
-0.445
-0.455
-0.475
-0.485
-0.475
-0.465
-0.46
-0.46
-0.49
-0.475
-0.46
-0.455
-0.45
-0.46
-0.465
-0.47
-0.46
-0.45
-0.44
-0.45
-0.455
-0.45
-0.445
-0.44
-0.45
-0.46
-0.465
-0.46
-0.455
-0.44
-0.445
-0.465
-0.475
-0.465
-0.47
-0.46
-0.465
-0.465
-0.475
-0.465
-0.465
-0.46
-0.47
-0.48
-0.47
-0.485
-0.475
-0.465
-0.48
-0.485
-0.495
-0.49
-0.485
-0.47
-0.465
-0.475
-0.49
-0.48
-0.465
-0.46
-0.465
-0.475
-0.485
-0.485
-0.475
-0.45
-0.45
-0.46
-0.475
-0.485
-0.465
-0.46
-0.455
-0.475
-0.475
-0.465
-0.455
-0.46
-0.43
-0.45
-0.47
-0.47
-0.445
-0.43
-0.435
-0.435
-0.44
-0.46
-0.435
-0.43
-0.43
-0.435
-0.445
-0.455
-0.44
-0.425
-0.41
-0.42
-0.435
-0.445
-0.43
-0.425
-0.415
-0.42
-0.43
-0.43
-0.42
-0.41
-0.385
-0.4
-0.41
-0.42
-0.405
-0.395
-0.4
-0.395
-0.415
-0.425
-0.415
-0.385
-0.395
-0.405
-0.395
-0.405
-0.405
-0.38
-0.37
-0.38
-0.415
-0.41
-0.405
-0.41
-0.395
-0.41
-0.41
-0.415
-0.395
-0.36
-0.365
-0.36
-0.38
-0.375
-0.345
-0.33
-0.34
-0.35
-0.365
-0.37
-0.355
-0.35
-0.345
-0.37
-0.405
-0.415
-0.405
-0.385
-0.39
-0.395
-0.42
-0.425
-0.405
-0.4
-0.395
-0.39
-0.4
-0.41
-0.405
-0.395
-0.395
-0.4
-0.415
-0.41
-0.405
-0.395
-0.39
-0.385
-0.39
-0.39
-0.365
-0.34
-0.31
-0.295
-0.285
-0.265
-0.195
-0.085
0.02
0.135
0.255
0.4
0.56
0.69
0.825
0.94
1.04
1.095
1.075
0.975
0.81
0.585
0.37
0.16
-0.015
-0.16
-0.26
-0.33
-0.35
-0.335
-0.33
-0.33
-0.345
-0.365
-0.405
-0.415
-0.42
-0.425
-0.42
-0.435
-0.445
-0.455
-0.465
-0.45
-0.445
-0.455
-0.47
-0.48
-0.47
-0.455
-0.455
-0.455
-0.48
-0.485
-0.465
-0.445
-0.435
-0.445
-0.475
-0.475
-0.45
-0.44
-0.435
-0.435
-0.45
-0.445
-0.435
-0.42
-0.43
-0.43
-0.445
-0.44
-0.435
-0.41
-0.405
-0.405
-0.42
-0.43
-0.42
-0.395
-0.39
-0.385
-0.395
-0.385
-0.375
-0.355
-0.35
-0.34
-0.345
-0.33
-0.315
-0.29
-0.31
-0.29
-0.3
-0.295
-0.275
-0.25
-0.24
-0.245
-0.23
-0.225
-0.205
-0.17
-0.155
-0.155
-0.155
-0.155
-0.125
-0.105
-0.085
-0.08
-0.075
-0.07
-0.05
-0.025
-0.02
-0.035
-0.035
-0.045
-0.03
-0.035
-0.035
-0.065
-0.08
-0.105
-0.11
-0.12
-0.135
-0.175
-0.205
-0.235
-0.24
-0.235
-0.25
-0.285
-0.31
-0.31
-0.325
-0.32
-0.325
-0.335
-0.38
-0.38
-0.38
-0.38
-0.38
-0.38
-0.4
-0.39
-0.39
-0.39
-0.37
-0.385
-0.395
-0.405
-0.39
-0.375
-0.38
-0.4
-0.415
-0.405
-0.385
-0.395
-0.38
-0.4
-0.395
-0.4
-0.39
-0.38
-0.39
-0.385
-0.39
-0.405
-0.395
-0.385
-0.375
-0.375
-0.385
-0.39
-0.375
-0.355
-0.345
-0.36
-0.37
-0.38
-0.375
-0.36
-0.345
-0.365
-0.375
-0.375
-0.365
-0.35
-0.355
-0.355
-0.365
-0.375
-0.375
-0.345
-0.355
-0.355
-0.385
-0.375
-0.35
-0.335
-0.355
-0.36
-0.375
-0.365
-0.36
-0.35
-0.35
-0.345
-0.36
-0.37
-0.355
-0.345
-0.335
-0.34
-0.36
-0.365
-0.35
-0.345
-0.34
-0.33
-0.35
-0.355
-0.355
-0.33
-0.325
-0.33
-0.345
-0.34
-0.34
-0.31
-0.325
-0.33
-0.34
-0.35
-0.335
-0.32
-0.315
-0.31
-0.33
-0.33
-0.33
-0.305
-0.3
-0.295
-0.315
-0.325
-0.31
-0.31
-0.305
-0.315
-0.315
-0.32
-0.315
-0.28
-0.29
-0.285
-0.305
-0.305
-0.295
-0.285
-0.3
-0.29
-0.3
-0.31
-0.29
-0.285
-0.28
-0.285
-0.295
-0.3
-0.29
-0.275
-0.27
-0.28
-0.295
-0.295
-0.275
-0.265
-0.26
-0.26
-0.27
-0.265
-0.27
-0.24
-0.25
-0.26
-0.275
-0.275
-0.265
-0.26
-0.23
-0.24
-0.245
-0.25
-0.235
-0.225
-0.235
-0.24
-0.25
-0.255
-0.235
-0.215
-0.22
-0.23
-0.24
-0.245
-0.23
-0.22
-0.215
-0.23
-0.235
-0.245
-0.24
-0.22
-0.215
-0.22
-0.235
-0.235
-0.22
-0.2
-0.19
-0.205
-0.23
-0.23
-0.215
-0.21
-0.2
-0.215
-0.22
-0.22
-0.225
-0.21
-0.195
-0.195
-0.22
-0.22
-0.2
-0.19
-0.19
-0.2
-0.2
-0.205
-0.185
-0.17
-0.185
-0.195
-0.21
-0.205
-0.18
-0.17
-0.175
-0.17
-0.195
-0.2
-0.18
-0.185
-0.165
-0.18
-0.19
-0.18
-0.18
-0.17
-0.155
-0.16
-0.165
-0.17
-0.16
-0.16
-0.15
-0.155
-0.175
-0.17
-0.165
-0.15
-0.14
-0.135
-0.16
-0.175
-0.16
-0.135
-0.115
-0.11
-0.11
-0.1
-0.08
-0.065
-0.06
-0.085
-0.085
-0.08
-0.075
-0.06
-0.06
-0.07
-0.085
-0.105
-0.105
-0.095
-0.1
-0.105
-0.125
-0.14
-0.115
-0.12
-0.11
-0.11
-0.13
-0.135
-0.12
-0.11
-0.09
-0.105
-0.12
-0.115
-0.105
-0.085
-0.085
-0.07
-0.095
-0.08
-0.065
-0.04
-0.03
-0.025
-0.01
0.005
0.035
0.085
0.135
0.19
0.265
0.38
0.52
0.66
0.81
0.935
1.035
1.16
1.305
1.435
1.475
1.465
1.34
1.155
0.94
0.725
0.525
0.35
0.175
0.055
0.005
-0.005
0.01
0.015
-0.01
-0.035
-0.045
-0.045
-0.055
-0.08
-0.095
-0.115
-0.105
-0.095
-0.1
-0.105
-0.13
-0.14
-0.15
-0.145
-0.115
-0.145
-0.145
-0.135
-0.13
-0.125
-0.12
-0.125
-0.13
-0.14
-0.13
-0.11
-0.105
-0.11
-0.125
-0.115
-0.12
-0.1
-0.08
-0.095
-0.105
-0.105
-0.095
-0.08
-0.085
-0.085
-0.09
-0.105
-0.105
-0.09
-0.07
-0.085
-0.09
-0.08
-0.09
-0.065
-0.045
-0.045
-0.065
-0.055
-0.04
-0.025
-0.015
-0.02
-0.025
-0.02
-0.005
0.02
0.035
0.035
0.03
0.03
0.055
0.075
0.09
0.1
0.07
0.085
0.1
0.135
0.135
0.145
0.14
0.16
0.175
0.19
0.195
0.205
0.2
0.19
0.2
0.215
0.225
0.22
0.2
0.2
0.21
0.2
0.2
0.17
0.15
0.12
0.11
0.11
0.095
0.065
0.03
-0.005
0
0
-0.005
-0.03
-0.06
-0.075
-0.075
-0.07
-0.08
-0.095
-0.12
-0.12
-0.135
-0.115
-0.115
-0.135
-0.145
-0.16
-0.16
-0.145
-0.15
-0.155
-0.17
-0.17
-0.155
-0.155
-0.145
-0.145
-0.155
-0.155
-0.16
-0.135
-0.135
-0.14
-0.155
-0.165
-0.16
-0.155
-0.135
-0.155
-0.17
-0.18
-0.155
-0.135
-0.145
-0.145
-0.17
-0.155
-0.16
-0.13
-0.125
-0.15
-0.155
-0.165
-0.165
-0.145
-0.145
-0.145
-0.155
-0.15
-0.14
-0.12
-0.125
-0.13
-0.15
-0.15
-0.14
-0.135
-0.135
-0.14
-0.16
-0.155
-0.15
-0.135
-0.125
-0.145
-0.145
-0.17
-0.16
-0.14
-0.135
-0.15
-0.16
-0.17
-0.175
-0.155
-0.15
-0.165
-0.175
-0.195
-0.17
-0.16
-0.15
-0.165
-0.185
-0.185
-0.19
-0.18
-0.165
-0.185
-0.185
-0.195
-0.195
-0.185
-0.185
-0.195
-0.21
-0.215
-0.21
-0.19
-0.185
-0.195
-0.215
-0.225
-0.215
-0.215
-0.195
-0.2
-0.22
-0.22
-0.215
-0.205
-0.2
-0.205
-0.215
-0.215
-0.21
-0.195
-0.19
-0.19
-0.2
-0.205
-0.2
-0.2
-0.19
-0.2
-0.195
-0.215
-0.205
-0.185
-0.185
-0.195
-0.21
-0.2
-0.2
-0.175
-0.185
-0.185
-0.19
-0.195
-0.19
-0.17
-0.165
-0.18
-0.19
-0.205
-0.19
-0.17
-0.175
-0.185
-0.195
-0.195
-0.2
-0.185
-0.18
-0.19
-0.205
-0.205
-0.18
-0.175
-0.175
-0.2
-0.21
-0.205
-0.185
-0.175
-0.165
-0.18
-0.195
-0.195
-0.18
-0.175
-0.19
-0.195
-0.185
-0.205
-0.185
-0.2
-0.175
-0.18
-0.185
-0.195
-0.18
-0.17
-0.175
-0.165
-0.175
-0.19
-0.17
-0.16
-0.15
-0.165
-0.185
-0.19
-0.17
-0.16
-0.15
-0.155
-0.17
-0.19
-0.185
-0.175
-0.155
-0.16
-0.165
-0.18
-0.165
-0.155
-0.15
-0.155
-0.175
-0.18
-0.165
-0.15
-0.145
-0.15
-0.17
-0.18
-0.16
-0.145
-0.145
-0.145
-0.165
-0.165
-0.155
-0.14
-0.135
-0.16
-0.175
-0.155
-0.16
-0.14
-0.14
-0.16
-0.165
-0.18
-0.18
-0.165
-0.15
-0.155
-0.15
-0.13
-0.1
-0.09
-0.095
-0.085
-0.11
-0.1
-0.085
-0.075
-0.07
-0.09
-0.125
-0.12
-0.115
-0.115
-0.11
-0.125
-0.14
-0.15
-0.145
-0.125
-0.125
-0.125
-0.15
-0.155
-0.145
-0.145
-0.125
-0.135
-0.15
-0.145
-0.145
-0.13
-0.12
-0.125
-0.135
-0.125
-0.095
-0.075
-0.065
-0.065
-0.055
-0.02
0
0.06
0.145
0.235
0.335
0.45
0.585
0.75
0.895
1
1.095
1.225
1.335
1.415
1.365
1.22
1.015
0.785
0.59
0.415
0.255
0.12
0.02
-0.005
-0.025
-0.02
-0.015
-0.035
-0.07
-0.085
-0.095
-0.115
-0.135
-0.155
-0.185
-0.185
-0.185
-0.18
-0.185
-0.175
-0.205
-0.2
-0.195
-0.19
-0.195
-0.205
-0.21
-0.21
-0.2
-0.195
-0.185
-0.195
-0.21
-0.21
-0.21
-0.185
-0.18
-0.185
-0.205
-0.215
-0.225
-0.2
-0.2
-0.2
-0.2
-0.2
-0.195
-0.175
-0.17
-0.19
-0.21
-0.215
-0.195
-0.17
-0.17
-0.18
-0.185
-0.19
-0.19
-0.16
-0.12
-0.12
-0.13
-0.125
-0.115
-0.1
-0.09
-0.12
-0.115
-0.105
-0.1
-0.075
-0.05
-0.035
-0.045
-0.045
-0.02
0.01
0.01
0.02
0.01
0.015
0.03
0.07
0.075
0.06
0.075
0.075
0.07
0.085
0.095
0.095
0.07
0.055
0.055
0.045
0.03
0
-0.045
-0.07
-0.085
-0.1
-0.11
-0.15
-0.19
-0.2
-0.21
-0.22
-0.22
-0.24
-0.28
-0.275
-0.295
-0.305
-0.325
-0.31
-0.315
-0.32
-0.335
-0.33
-0.345
-0.36
-0.38
-0.395
-0.385
-0.365
-0.35
-0.365
-0.395
-0.39
-0.395
-0.37
-0.375
-0.375
-0.385
-0.395
-0.365
-0.34
-0.335
-0.365
-0.4
-0.43
-0.4
-0.38
-0.375
-0.385
-0.4
-0.39
-0.385
-0.355
-0.36
-0.39
-0.405
-0.405
-0.39
-0.37
-0.36
-0.385
-0.4
-0.4
-0.38
-0.37
-0.37
-0.395
-0.4
-0.395
-0.38
-0.36
-0.37
-0.385
-0.41
-0.425
-0.415
-0.4
-0.405
-0.41
-0.415
-0.415
-0.405
-0.385
-0.395
-0.415
-0.43
-0.425
-0.41
-0.41
-0.405
-0.41
-0.425
-0.44
-0.43
-0.415
-0.405
-0.42
-0.43
-0.44
-0.435
-0.43
-0.43
-0.435
-0.455
-0.45
-0.44
-0.425
-0.44
-0.435
-0.45
-0.47
-0.45
-0.435
-0.43
-0.43
-0.46
-0.465
-0.455
-0.445
-0.435
-0.455
-0.47
-0.475
-0.455
-0.435
-0.43
-0.435
-0.45
-0.46
-0.44
-0.43
-0.43
-0.44
-0.47
-0.46
-0.425
-0.425
-0.405
-0.43
-0.455
-0.45
-0.415
-0.42
-0.42
-0.425
-0.43
-0.435
-0.435
-0.405
-0.4
-0.405
-0.41
-0.425
-0.41
-0.38
-0.38
-0.4
-0.395
-0.4
-0.4
-0.365
-0.37
-0.37
-0.375
-0.4
-0.385
-0.355
-0.345
-0.35
-0.375
-0.365
-0.36
-0.355
-0.345
-0.33
-0.355
-0.36
-0.35
-0.325
-0.315
-0.315
-0.33
-0.335
-0.325
-0.305
-0.3
-0.295
-0.32
-0.315
-0.31
-0.305
-0.29
-0.295
-0.295
-0.295
-0.29
-0.265
-0.265
-0.275
-0.29
-0.28
-0.275
-0.245
-0.24
-0.25
-0.265
-0.275
-0.275
-0.245
-0.225
-0.245
-0.245
-0.245
-0.235
-0.215
-0.215
-0.22
-0.24
-0.24
-0.2
-0.19
-0.18
-0.2
-0.225
-0.22
-0.19
-0.15
-0.155
-0.18
-0.205
-0.215
-0.215
-0.185
-0.17
-0.155
-0.175
-0.185
-0.18
-0.165
-0.17
-0.175
-0.17
-0.175
-0.19
-0.185
-0.155
-0.145
-0.145
-0.155
-0.125
-0.115
-0.095
-0.1
-0.115
-0.12
-0.12
-0.115
-0.115
-0.115
-0.135
-0.155
-0.155
-0.165
-0.17
-0.18
-0.175
-0.185
-0.185
-0.2
-0.19
-0.185
-0.195
-0.195
-0.18
-0.155
-0.14
-0.165
-0.15
-0.16
-0.125
-0.125
-0.115
-0.115
-0.135
-0.13
-0.075
-0.035
-0.01
0.04
0.12
0.225
0.365
0.495
0.66
0.805
0.915
1.04
1.185
1.315
1.375
1.305
1.165
1
0.81
0.605
0.44
0.255
0.085
-0.02
-0.065
-0.06
-0.06
-0.08
-0.13
-0.175
-0.19
-0.2
-0.2
-0.235
-0.255
-0.275
-0.265
-0.245
-0.235
-0.245
-0.255
-0.27
-0.29
-0.295
-0.295
-0.285
-0.295
-0.295
-0.285
-0.265
-0.255
-0.265
-0.305
-0.33
-0.325
-0.31
-0.285
-0.31
-0.315
-0.31
-0.305
-0.28
-0.28
-0.29
-0.285
-0.285
-0.28
-0.265
-0.27
-0.275
-0.275
-0.295
-0.28
-0.255
-0.245
-0.255
-0.25
-0.255
-0.25
-0.225
-0.22
-0.215
-0.215
-0.235
-0.22
-0.18
-0.16
-0.165
-0.165
-0.17
-0.145
-0.125
-0.105
-0.1
-0.115
-0.11
-0.085
-0.065
-0.035
-0.025
-0.035
-0.035
-0.01
0.01
0.02
0.025
0.025
0.02
0.04
0.045
0.035
-0.005
-0.01
-0.03
-0.045
-0.04
-0.05
-0.07
-0.105
-0.12
-0.145
-0.16
-0.165
-0.2
-0.23
-0.245
-0.255
-0.25
-0.255
-0.28
-0.295
-0.3
-0.29
-0.28
-0.305
-0.3
-0.31
-0.32
-0.325
-0.325
-0.32
-0.325
-0.32
-0.325
-0.335
-0.31
-0.31
-0.32
-0.32
-0.33
-0.31
-0.29
-0.3
-0.305
-0.31
-0.305
-0.305
-0.29
-0.285
-0.275
-0.29
-0.3
-0.295
-0.265
-0.27
-0.275
-0.29
-0.285
-0.275
-0.255
-0.26
-0.265
-0.27
-0.265
-0.245
-0.245
-0.23
-0.245
-0.245
-0.25
-0.24
-0.215
-0.205
-0.215
-0.235
-0.235
-0.22
-0.225
-0.205
-0.22
-0.235
-0.225
-0.21
-0.2
-0.2
-0.2
-0.225
-0.225
-0.215
-0.2
-0.19
-0.215
-0.23
-0.23
-0.23
-0.195
-0.185
-0.195
-0.205
-0.2
-0.2
-0.205
-0.18
-0.185
-0.2
-0.205
-0.185
-0.17
-0.155
-0.165
-0.19
-0.185
-0.185
-0.17
-0.15
-0.175
-0.175
-0.18
-0.165
-0.16
-0.14
-0.155
-0.175
-0.185
-0.17
-0.16
-0.155
-0.165
-0.165
-0.165
-0.165
-0.155
-0.15
-0.16
-0.16
-0.165
-0.18
-0.165
-0.145
-0.15
-0.155
-0.155
-0.145
-0.145
-0.13
-0.125
-0.145
-0.165
-0.155
-0.125
-0.125
-0.125
-0.14
-0.145
-0.125
-0.105
-0.11
-0.115
-0.125
-0.13
-0.125
-0.105
-0.105
-0.115
-0.135
-0.15
-0.125
-0.095
-0.09
-0.1
-0.105
-0.11
-0.12
-0.095
-0.09
-0.105
-0.125
-0.115
-0.1
-0.1
-0.095
-0.1
-0.1
-0.11
-0.095
-0.1
-0.095
-0.1
-0.11
-0.105
-0.1
-0.09
-0.075
-0.08
-0.09
-0.1
-0.08
-0.08
-0.07
-0.07
-0.09
-0.105
-0.09
-0.08
-0.075
-0.08
-0.085
-0.085
-0.085
-0.08
-0.07
-0.065
-0.07
-0.08
-0.07
-0.05
-0.04
-0.05
-0.05
-0.065
-0.065
-0.04
-0.03
-0.04
-0.055
-0.05
-0.05
-0.035
-0.02
-0.03
-0.05
-0.045
-0.045
-0.04
-0.035
-0.02
-0.035
-0.035
-0.04
-0.03
-0.005
-0.01
-0.015
-0.02
-0.01
-0.015
0
-0.01
-0.025
-0.03
-0.035
-0.015
0.025
0.035
0.035
0.035
0.045
0.065
0.065
0.05
0.05
0.055
0.06
0.06
0.055
0.035
0.035
0.025
0.01
0.025
0.02
0
0.015
-0.005
0.015
0.02
0.02
0.015
0.005
-0.005
0
0.025
0.03
0.02
0.01
0
0
0.035
0.06
0.04
0.04
0.055
0.08
0.12
0.145
0.165
0.19
0.245
0.355
0.48
0.615
0.745
0.87
1.005
1.145
1.285
1.4
1.485
1.465
1.36
1.215
1.035
0.825
0.635
0.46
0.325
0.215
0.165
0.135
0.135
0.105
0.1
0.09
0.08
0.07
0.045
0.01
-0.005
-0.01
0.005
-0.005
-0.02
-0.03
-0.035
-0.045
-0.035
-0.025
-0.035
-0.05
-0.06
-0.045
-0.05
-0.035
-0.05
-0.065
-0.055
-0.055
-0.03
-0.025
-0.035
-0.05
-0.055
-0.05
-0.035
-0.025
-0.04
-0.045
-0.05
-0.035
-0.025
-0.03
-0.04
-0.035
-0.03
-0.02
0
0
0
-0.01
0
0.01
0.02
0.035
0.035
0.03
0.03
0.045
0.055
0.07
0.065
0.065
0.075
0.08
0.105
0.11
0.125
0.115
0.12
0.115
0.15
0.17
0.185
0.185
0.18
0.205
0.23
0.24
0.235
0.24
0.255
0.275
0.28
0.305
0.3
0.305
0.305
0.32
0.335
0.35
0.335
0.325
0.3
0.295
0.295
0.29
0.265
0.225
0.21
0.195
0.19
0.18
0.13
0.13
0.105
0.085
0.09
0.07
0.05
0.025
0.005
0.005
0.01
0
-0.015
-0.025
-0.055
-0.05
-0.045
-0.055
-0.05
-0.075
-0.085
-0.065
-0.06
-0.045
-0.06
-0.085
-0.095
-0.08
-0.075
-0.06
-0.07
-0.075
-0.1
-0.12
-0.075
-0.075
-0.075
-0.09
-0.09
-0.09
-0.075
-0.075
-0.08
-0.09
-0.105
-0.085
-0.075
-0.07
-0.085
-0.08
-0.105
-0.09
-0.08
-0.065
-0.065
-0.09
-0.095
-0.09
-0.08
-0.08
-0.08
-0.09
-0.11
-0.11
-0.08
-0.09
-0.105
-0.115
-0.115
-0.105
-0.1
-0.085
-0.095
-0.125
-0.125
-0.12
-0.09
-0.095
-0.11
-0.12
-0.15
-0.13
-0.11
-0.115
-0.135
-0.13
-0.125
-0.125
-0.115
-0.11
-0.115
-0.13
-0.155
-0.145
-0.13
-0.135
-0.12
-0.16
-0.145
-0.145
-0.135
-0.13
-0.14
-0.155
-0.155
-0.155
-0.135
-0.13
-0.13
-0.145
-0.145
-0.14
-0.125
-0.125
-0.14
-0.145
-0.15
-0.135
-0.13
-0.13
-0.125
-0.16
-0.155
-0.15
-0.15
-0.13
-0.13
-0.15
-0.15
-0.15
-0.125
-0.14
-0.135
-0.15
-0.145
-0.145
-0.12
-0.125
-0.14
-0.145
-0.15
-0.135
-0.145
-0.14
-0.15
-0.17
-0.175
-0.165
-0.135
-0.135
-0.145
-0.175
-0.16
-0.145
-0.13
-0.125
-0.13
-0.15
-0.155
-0.14
-0.12
-0.11
-0.115
-0.135
-0.14
-0.15
-0.135
-0.12
-0.13
-0.125
-0.13
-0.14
-0.115
-0.11
-0.115
-0.13
-0.135
-0.13
-0.115
-0.115
-0.11
-0.135
-0.145
-0.13
-0.105
-0.095
-0.1
-0.115
-0.13
-0.12
-0.105
-0.09
-0.1
-0.11
-0.12
-0.11
-0.095
-0.085
-0.115
-0.115
-0.13
-0.11
-0.105
-0.095
-0.105
-0.12
-0.125
-0.105
-0.09
-0.085
-0.07
-0.09
-0.105
-0.105
-0.09
-0.075
-0.08
-0.085
-0.08
-0.09
-0.085
-0.08
-0.095
-0.095
-0.11
-0.085
-0.085
-0.065
-0.08
-0.095
-0.105
-0.09
-0.09
-0.065
-0.07
-0.075
-0.085
-0.075
-0.05
-0.05
-0.06
-0.065
-0.075
-0.08
-0.06
-0.055
-0.05
-0.065
-0.065
-0.045
-0.035
-0.025
-0.015
-0.045
-0.04
-0.025
-0.005
0
-0.015
-0.03
-0.045
-0.03
-0.03
-0.035
-0.045
-0.065
-0.07
-0.085
-0.07
-0.06
-0.07
-0.085
-0.08
-0.08
-0.055
-0.045
-0.05
-0.07
-0.08
-0.06
-0.055
-0.04
-0.055
-0.065
-0.065
-0.06
-0.035
-0.005
-0.02
-0.03
-0.005
0.02
0.065
0.1
0.12
0.135
0.19
0.29
0.42
0.575
0.715
0.855
0.98
1.1
1.265
1.4
1.465
1.435
1.335
1.165
0.945
0.715
0.52
0.34
0.18
0.04
-0.02
-0.025
-0.035
-0.015
-0.01
-0.02
-0.025
-0.015
-0.045
-0.065
-0.08
-0.075
-0.065
-0.075
-0.085
-0.105
-0.11
-0.115
-0.085
-0.11
-0.105
-0.115
-0.125
-0.11
-0.095
-0.09
-0.11
-0.13
-0.125
-0.125
-0.095
-0.085
-0.095
-0.11
-0.115
-0.11
-0.1
-0.085
-0.085
-0.1
-0.095
-0.1
-0.09
-0.08
-0.08
-0.105
-0.115
-0.095
-0.07
-0.055
-0.07
-0.08
-0.08
-0.06
-0.05
-0.045
-0.045
-0.055
-0.065
-0.05
-0.02
-0.02
-0.035
-0.03
-0.025
-0.015
0
0.015
0
-0.005
-0.005
0.01
0.03
0.06
0.05
0.06
0.055
0.07
0.095
0.105
0.115
0.1
0.105
0.11
0.135
0.145
0.14
0.14
0.155
0.17
0.17
0.19
0.195
0.19
0.18
0.185
0.19
0.2
0.2
0.185
0.165
0.155
0.165
0.15
0.13
0.095
0.08
0.06
0.06
0.05
0.005
-0.005
-0.035
-0.04
-0.045
-0.045
-0.075
-0.09
-0.09
-0.105
-0.09
-0.09
-0.125
-0.145
-0.16
-0.15
-0.155
-0.145
-0.165
-0.175
-0.175
-0.165
-0.14
-0.13
-0.15
-0.165
-0.17
-0.165
-0.145
-0.145
-0.16
-0.17
-0.175
-0.165
-0.15
-0.155
-0.135
-0.16
-0.17
-0.16
-0.15
-0.15
-0.15
-0.16
-0.165
-0.16
-0.155
-0.135
-0.14
-0.155
-0.155
-0.15
-0.145
-0.135
-0.135
-0.145
-0.175
-0.155
-0.14
-0.14
-0.14
-0.15
-0.155
-0.145
-0.14
-0.12
-0.12
-0.145
-0.155
-0.145
-0.135
-0.13
-0.135
-0.15
-0.15
-0.145
-0.14
-0.12
-0.145
-0.145
-0.15
-0.14
-0.135
-0.13
-0.14
-0.15
-0.15
-0.145
-0.13
-0.125
-0.13
-0.145
-0.16
-0.155
-0.145
-0.14
-0.14
-0.15
-0.165
-0.15
-0.145
-0.15
-0.15
-0.165
-0.165
-0.165
-0.16
-0.135
-0.15
-0.17
-0.17
-0.165
-0.15
-0.135
-0.145
-0.165
-0.17
-0.17
-0.16
-0.15
-0.155
-0.17
-0.17
-0.165
-0.14
-0.14
-0.145
-0.16
-0.155
-0.145
-0.14
-0.135
-0.135
-0.15
-0.155
-0.155
-0.135
-0.13
-0.15
-0.16
-0.15
-0.155
-0.145
-0.12
-0.13
-0.14
-0.15
-0.145
-0.125
-0.14
-0.125
-0.13
-0.14
-0.145
-0.135
-0.14
-0.135
-0.145
-0.15
-0.15
-0.135
-0.135
-0.14
-0.155
-0.155
-0.15
-0.125
-0.11
-0.13
-0.14
-0.13
-0.12
-0.11
-0.11
-0.115
-0.12
-0.135
-0.13
-0.12
-0.115
-0.12
-0.145
-0.145
-0.135
-0.12
-0.115
-0.115
-0.14
-0.145
-0.125
-0.11
-0.1
-0.1
-0.115
-0.135
-0.125
-0.11
-0.115
-0.12
-0.15
-0.135
-0.145
-0.115
-0.105
-0.115
-0.135
-0.14
-0.13
-0.105
-0.105
-0.11
-0.11
-0.145
-0.12
-0.105
-0.105
-0.115
-0.13
-0.135
-0.12
-0.115
-0.1
-0.1
-0.12
-0.12
-0.11
-0.1
-0.115
-0.1
-0.125
-0.13
-0.11
-0.095
-0.095
-0.09
-0.1
-0.105
-0.095
-0.085
-0.095
-0.1
-0.09
-0.11
-0.095
-0.09
-0.065
-0.085
-0.105
-0.12
-0.105
-0.105
-0.08
-0.065
-0.055
-0.065
-0.045
-0.04
-0.03
-0.03
-0.05
-0.055
-0.03
-0.015
-0.02
-0.045
-0.065
-0.085
-0.07
-0.07
-0.08
-0.07
-0.1
-0.11
-0.105
-0.09
-0.085
-0.085
-0.095
-0.105
-0.085
-0.09
-0.08
-0.075
-0.1
-0.1
-0.105
-0.09
-0.07
-0.08
-0.095
-0.085
-0.07
-0.07
-0.065
-0.06
-0.045
-0.04
-0.025
0.03
0.07
0.075
0.115
0.18
0.29
0.41
0.52
0.66
0.775
0.9
1.035
1.17
1.31
1.415
1.46
1.43
1.325
1.165
0.975
0.76
0.58
0.395
0.245
0.13
0.055
0
0.005
0.015
0.01
0.02
0
-0.025
-0.06
-0.065
-0.08
-0.075
-0.085
-0.095
-0.11
-0.13
-0.11
-0.105
-0.1
-0.125
-0.135
-0.135
-0.135
-0.135
-0.11
-0.13
-0.14
-0.15
-0.135
-0.12
-0.11
-0.125
-0.13
-0.14
-0.125
-0.105
-0.1
-0.11
-0.12
-0.12
-0.125
-0.09
-0.095
-0.105
-0.11
-0.115
-0.1
-0.095
-0.08
-0.095
-0.095
-0.095
-0.085
-0.065
-0.065
-0.07
-0.075
-0.065
-0.065
-0.05
-0.035
-0.04
-0.035
-0.055
-0.05
-0.01
0.02
0.01
0.01
0.005
0.015
0.055
0.065
0.045
0.06
0.05
0.085
0.1
0.115
0.125
0.115
0.11
0.13
0.155
0.165
0.17
0.165
0.16
0.175
0.2
0.21
0.215
0.2
0.2
0.215
0.23
0.23
0.22
0.2
0.185
0.185
0.18
0.17
0.14
0.1
0.095
0.085
0.075
0.055
0.03
0.01
-0.025
-0.02
-0.025
-0.03
-0.05
-0.09
-0.11
-0.105
-0.12
-0.11
-0.13
-0.15
-0.15
-0.145
-0.13
-0.125
-0.13
-0.145
-0.175
-0.16
-0.15
-0.145
-0.155
-0.165
-0.185
-0.165
-0.175
-0.16
-0.155
-0.175
-0.19
-0.17
-0.145
-0.145
-0.15
-0.17
-0.175
-0.175
-0.15
-0.14
-0.155
-0.165
-0.17
-0.16
-0.15
-0.14
-0.155
-0.17
-0.175
-0.165
-0.15
-0.14
-0.165
-0.185
-0.185
-0.175
-0.175
-0.16
-0.15
-0.18
-0.175
-0.17
-0.155
-0.17
-0.175
-0.175
-0.175
-0.18
-0.165
-0.16
-0.17
-0.175
-0.18
-0.18
-0.175
-0.165
-0.175
-0.2
-0.195
-0.19
-0.18
-0.17
-0.185
-0.19
-0.2
-0.195
-0.185
-0.175
-0.19
-0.195
-0.21
-0.19
-0.19
-0.19
-0.2
-0.215
-0.215
-0.205
-0.195
-0.185
-0.195
-0.21
-0.22
-0.21
-0.205
-0.19
-0.2
-0.215
-0.22
-0.205
-0.2
-0.195
-0.2
-0.22
-0.23
-0.21
-0.205
-0.2
-0.2
-0.22
-0.235
-0.24
-0.21
-0.205
-0.205
-0.23
-0.235
-0.215
-0.21
-0.2
-0.225
-0.225
-0.23
-0.225
-0.205
-0.19
-0.2
-0.215
-0.22
-0.225
-0.21
-0.19
-0.205
-0.22
-0.225
-0.22
-0.205
-0.205
-0.205
-0.225
-0.235
-0.23
-0.225
-0.195
-0.21
-0.21
-0.225
-0.22
-0.215
-0.205
-0.21
-0.22
-0.24
-0.205
-0.2
-0.2
-0.205
-0.22
-0.235
-0.235
-0.21
-0.21
-0.205
-0.215
-0.22
-0.21
-0.21
-0.19
-0.205
-0.22
-0.22
-0.215
-0.205
-0.21
-0.21
-0.225
-0.23
-0.225
-0.21
-0.195
-0.205
-0.23
-0.225
-0.215
-0.205
-0.2
-0.205
-0.2
-0.21
-0.21
-0.19
-0.19
-0.195
-0.205
-0.215
-0.22
-0.2
-0.21
-0.18
-0.195
-0.21
-0.2
-0.2
-0.2
-0.195
-0.21
-0.21
-0.2
-0.185
-0.175
-0.205
-0.205
-0.21
-0.2
-0.18
-0.17
-0.175
-0.195
-0.19
-0.19
-0.17
-0.165
-0.185
-0.195
-0.2
-0.195
-0.175
-0.165
-0.155
-0.15
-0.15
-0.13
-0.13
-0.115
-0.12
-0.12
-0.13
-0.14
-0.115
-0.11
-0.13
-0.17
-0.165
-0.19
-0.165
-0.15
-0.17
-0.205
-0.19
-0.18
-0.175
-0.165
-0.17
-0.185
-0.185
-0.185
-0.185
-0.175
-0.17
-0.18
-0.18
-0.18
-0.155
-0.15
-0.16
-0.16
-0.18
-0.15
-0.12
-0.1
-0.055
-0.04
-0.02
0.015
0.105
0.2
0.31
0.455
0.625
0.795
0.93
1.065
1.205
1.32
1.39
1.36
1.25
1.04
0.78
0.535
0.325
0.145
0
-0.1
-0.135
-0.15
-0.12
-0.105
-0.095
-0.115
-0.14
-0.17
-0.185
-0.19
-0.195
-0.185
-0.2
-0.22
-0.24
-0.24
-0.225
-0.23
-0.23
-0.24
-0.25
-0.24
-0.23
-0.215
-0.245
-0.245
-0.26
-0.245
-0.225
-0.23
-0.225
-0.245
-0.25
-0.245
-0.225
-0.215
-0.21
-0.235
-0.235
-0.23
-0.21
-0.22
-0.215
-0.22
-0.225
-0.22
-0.21
-0.19
-0.195
-0.21
-0.22
-0.21
-0.19
-0.17
-0.175
-0.17
-0.19
-0.155
-0.15
-0.14
-0.135
-0.13
-0.145
-0.115
-0.105
-0.075
-0.08
-0.1
-0.085
-0.065
-0.035
-0.025
-0.015
-0.02
-0.02
0
0.02
0.035
0.025
0.04
0.03
0.045
0.08
0.095
0.095
0.095
0.09
0.11
0.12
0.125
0.1
0.075
0.08
0.065
0.07
0.06
0.03
-0.005
-0.035
-0.05
-0.05
-0.055
-0.09
-0.125
-0.135
-0.15
-0.145
-0.145
-0.16
-0.195
-0.21
-0.215
-0.21
-0.225
-0.23
-0.24
-0.255
-0.25
-0.25
-0.225
-0.245
-0.26
-0.275
-0.265
-0.27
-0.24
-0.25
-0.26
-0.28
-0.285
-0.265
-0.25
-0.26
-0.27
-0.275
-0.275
-0.27
-0.245
-0.25
-0.27
-0.27
-0.26
-0.245
-0.235
-0.245
-0.26
-0.285
-0.27
-0.255
-0.24
-0.25
-0.275
-0.27
-0.265
-0.26
-0.245
-0.25
-0.295
-0.275
-0.265
-0.25
-0.25
-0.245
-0.26
-0.28
-0.265
-0.25
-0.25
-0.255
-0.285
-0.295
-0.27
-0.26
-0.26
-0.265
-0.285
-0.28
-0.28
-0.26
-0.26
-0.265
-0.28
-0.285
-0.28
-0.28
-0.275
-0.265
-0.3
-0.305
-0.285
-0.275
-0.27
-0.285
-0.28
-0.295
-0.29
-0.275
-0.265
-0.27
-0.295
-0.295
-0.295
-0.285
-0.26
-0.26
-0.275
-0.305
-0.29
-0.275
-0.275
-0.275
-0.28
-0.295
-0.285
-0.275
-0.265
-0.27
-0.29
-0.29
-0.285
-0.27
-0.265
-0.285
-0.305
-0.315
-0.305
-0.285
-0.275
-0.275
-0.3
-0.295
-0.29
-0.28
-0.275
-0.29
-0.285
-0.285
-0.285
-0.295
-0.27
-0.275
-0.285
-0.31
-0.295
-0.28
-0.27
-0.28
-0.3
-0.305
-0.295
-0.29
-0.28
-0.28
-0.3
-0.305
-0.295
-0.275
-0.265
-0.27
-0.28
-0.29
-0.28
-0.285
-0.26
-0.275
-0.295
-0.305
-0.285
-0.295
-0.28
-0.275
-0.29
-0.295
-0.285
-0.275
-0.26
-0.285
-0.28
-0.3
-0.28
-0.27
-0.27
-0.28
-0.3
-0.29
-0.28
-0.285
-0.27
-0.285
-0.29
-0.3
-0.29
-0.27
-0.26
-0.26
-0.285
-0.285
-0.28
-0.265
-0.25
-0.26
-0.275
-0.27
-0.27
-0.26
-0.255
-0.25
-0.26
-0.27
-0.255
-0.24
-0.235
-0.235
-0.255
-0.26
-0.25
-0.25
-0.24
-0.235
-0.245
-0.235
-0.21
-0.19
-0.175
-0.185
-0.195
-0.2
-0.19
-0.195
-0.18
-0.2
-0.215
-0.245
-0.245
-0.235
-0.225
-0.26
-0.27
-0.285
-0.275
-0.25
-0.25
-0.25
-0.265
-0.27
-0.26
-0.25
-0.245
-0.25
-0.265
-0.27
-0.27
-0.25
-0.235
-0.245
-0.255
-0.265
-0.25
-0.225
-0.21
-0.205
-0.205
-0.175
-0.135
-0.08
-0.005
0.1
0.21
0.35
0.515
0.675
0.82
0.96
1.09
1.245
1.345
1.355
1.25
1.05
0.815
0.575
0.37
0.19
0.025
-0.09
-0.155
-0.17
-0.165
-0.15
-0.16
-0.19
-0.225
-0.265
-0.27
-0.25
-0.255
-0.27
-0.285
-0.305
-0.305
-0.295
-0.285
-0.305
-0.315
-0.33
-0.315
-0.31
-0.305
-0.295
-0.325
-0.315
-0.32
-0.31
-0.29
-0.295
-0.31
-0.315
-0.31
-0.31
-0.275
-0.285
-0.305
-0.315
-0.3
-0.27
-0.265
-0.275
-0.295
-0.285
-0.27
-0.255
-0.25
-0.24
-0.255
-0.265
-0.27
-0.24
-0.22
-0.225
-0.23
-0.225
-0.22
-0.195
-0.18
-0.175
-0.19
-0.195
-0.175
-0.135
-0.125
-0.12
-0.125
-0.115
-0.1
-0.075
-0.06
-0.06
-0.06
-0.055
-0.04
-0.025
0.005
0.005
-0.015
0.015
0.01
0.03
0.05
0.055
0.045
0.035
0.02
0.03
0.035
0.005
-0.015
-0.04
-0.05
-0.06
-0.07
-0.1
-0.14
-0.155
-0.17
-0.175
-0.185
-0.21
-0.24
-0.265
-0.275
-0.27
-0.275
-0.29
-0.31
-0.315
-0.315
-0.31
-0.315
-0.31
-0.335
-0.35
-0.335
-0.325
-0.32
-0.335
-0.35
-0.36
-0.36
-0.335
-0.32
-0.335
-0.355
-0.36
-0.35
-0.34
-0.335
-0.345
-0.35
-0.35
-0.355
-0.335
-0.32
-0.315
-0.34
-0.35
-0.335
-0.32
-0.315
-0.33
-0.34
-0.345
-0.34
-0.32
-0.32
-0.335
-0.35
-0.35
-0.34
-0.335
-0.33
-0.345
-0.35
-0.36
-0.355
-0.335
-0.335
-0.345
-0.36
-0.355
-0.34
-0.335
-0.335
-0.345
-0.355
-0.37
-0.365
-0.36
-0.33
-0.335
-0.35
-0.35
-0.35
-0.345
-0.335
-0.34
-0.35
-0.36
-0.36
-0.36
-0.345
-0.345
-0.36
-0.365
-0.375
-0.35
-0.345
-0.355
-0.375
-0.38
-0.385
-0.36
-0.36
-0.355
-0.365
-0.37
-0.355
-0.345
-0.345
-0.35
-0.36
-0.36
-0.355
-0.35
-0.35
-0.35
-0.35
-0.36
-0.35
-0.35
-0.325
-0.33
-0.35
-0.365
-0.355
-0.345
-0.335
-0.34
-0.35
-0.36
-0.355
-0.345
-0.335
-0.34
-0.355
-0.37
-0.36
-0.345
-0.34
-0.34
-0.35
-0.37
-0.365
-0.345
-0.335
-0.34
-0.345
-0.37
-0.365
-0.35
-0.335
-0.34
-0.35
-0.375
-0.365
-0.35
-0.34
-0.34
-0.365
-0.365
-0.36
-0.34
-0.34
-0.33
-0.37
-0.36
-0.355
-0.35
-0.335
-0.34
-0.35
-0.36
-0.37
-0.355
-0.335
-0.34
-0.35
-0.355
-0.35
-0.35
-0.33
-0.335
-0.355
-0.35
-0.34
-0.34
-0.33
-0.325
-0.35
-0.35
-0.345
-0.33
-0.32
-0.32
-0.33
-0.345
-0.33
-0.33
-0.315
-0.325
-0.325
-0.345
-0.345
-0.325
-0.315
-0.315
-0.335
-0.345
-0.33
-0.315
-0.305
-0.305
-0.315
-0.33
-0.32
-0.315
-0.3
-0.32
-0.335
-0.34
-0.345
-0.335
-0.305
-0.295
-0.295
-0.295
-0.27
-0.25
-0.235
-0.245
-0.265
-0.255
-0.255
-0.265
-0.245
-0.265
-0.29
-0.325
-0.3
-0.29
-0.29
-0.305
-0.325
-0.345
-0.335
-0.32
-0.305
-0.315
-0.335
-0.33
-0.325
-0.315
-0.295
-0.325
-0.33
-0.34
-0.325
-0.305
-0.29
-0.29
-0.285
-0.29
-0.28
-0.25
-0.23
-0.215
-0.205
-0.185
-0.15
-0.09
0
0.1
0.205
0.325
0.475
0.63
0.77
0.88
1.025
1.12
1.15
1.105
0.995
0.805
0.58
0.38
0.205
0.05
-0.065
-0.155
-0.215
-0.24
-0.21
-0.2
-0.205
-0.255
-0.28
-0.295
-0.295
-0.3
-0.3
-0.31
-0.315
-0.345
-0.34
-0.335
-0.325
-0.33
-0.345
-0.36
-0.35
-0.35
-0.335
-0.335
-0.36
-0.37
-0.37
-0.36
-0.345
-0.345
-0.355
-0.36
-0.365
-0.355
-0.35
-0.355
-0.35
-0.36
-0.355
-0.33
-0.335
-0.33
-0.345
-0.35
-0.335
-0.32
-0.305
-0.315
-0.32
-0.33
-0.315
-0.3
-0.295
-0.28
-0.3
-0.305
-0.29
-0.26
-0.24
-0.255
-0.26
-0.26
-0.25
-0.23
-0.21
-0.2
-0.205
-0.205
-0.185
-0.155
-0.14
-0.13
-0.14
-0.135
-0.11
-0.09
-0.07
-0.065
-0.07
-0.07
-0.055
-0.035
-0.015
-0.02
-0.015
-0.015
0.02
0.03
0.05
0.035
0.035
0.025
0.025
0.035
0.035
0.025
-0.015
-0.035
-0.055
-0.075
-0.08
-0.115
-0.15
-0.165
-0.175
-0.185
-0.19
-0.225
-0.255
-0.26
-0.275
-0.29
-0.285
-0.305
-0.325
-0.325
-0.355
-0.345
-0.325
-0.335
-0.37
-0.38
-0.36
-0.35
-0.34
-0.34
-0.36
-0.37
-0.375
-0.35
-0.345
-0.35
-0.36
-0.37
-0.375
-0.36
-0.355
-0.36
-0.375
-0.39
-0.37
-0.36
-0.36
-0.36
-0.36
-0.36
-0.37
-0.355
-0.35
-0.36
-0.37
-0.375
-0.36
-0.33
-0.325
-0.335
-0.345
-0.36
-0.35
-0.35
-0.33
-0.35
-0.35
-0.365
-0.34
-0.345
-0.32
-0.335
-0.355
-0.35
-0.345
-0.325
-0.32
-0.32
-0.345
-0.345
-0.34
-0.33
-0.315
-0.325
-0.34
-0.34
-0.34
-0.325
-0.31
-0.33
-0.34
-0.35
-0.345
-0.335
-0.325
-0.34
-0.335
-0.35
-0.36
-0.35
-0.34
-0.32
-0.345
-0.355
-0.35
-0.35
-0.32
-0.335
-0.345
-0.355
-0.355
-0.34
-0.345
-0.34
-0.335
-0.355
-0.355
-0.345
-0.335
-0.325
-0.335
-0.36
-0.335
-0.335
-0.33
-0.33
-0.335
-0.35
-0.35
-0.34
-0.32
-0.33
-0.33
-0.34
-0.34
-0.335
-0.325
-0.325
-0.33
-0.35
-0.33
-0.325
-0.33
-0.325
-0.345
-0.35
-0.335
-0.325
-0.32
-0.33
-0.335
-0.35
-0.34
-0.33
-0.315
-0.33
-0.335
-0.345
-0.35
-0.34
-0.31
-0.325
-0.335
-0.34
-0.325
-0.315
-0.31
-0.32
-0.335
-0.34
-0.325
-0.32
-0.325
-0.325
-0.345
-0.355
-0.35
-0.325
-0.31
-0.315
-0.33
-0.34
-0.34
-0.315
-0.325
-0.32
-0.32
-0.33
-0.335
-0.315
-0.31
-0.315
-0.345
-0.36
-0.35
-0.33
-0.31
-0.335
-0.34
-0.35
-0.33
-0.32
-0.305
-0.305
-0.325
-0.34
-0.33
-0.32
-0.315
-0.33
-0.325
-0.34
-0.35
-0.325
-0.32
-0.315
-0.315
-0.33
-0.33
-0.325
-0.31
-0.3
-0.32
-0.325
-0.32
-0.315
-0.305
-0.3
-0.305
-0.315
-0.32
-0.31
-0.31
-0.3
-0.295
-0.3
-0.295
-0.275
-0.27
-0.265
-0.26
-0.275
-0.255
-0.245
-0.24
-0.25
-0.265
-0.28
-0.275
-0.28
-0.29
-0.295
-0.315
-0.335
-0.33
-0.315
-0.3
-0.3
-0.315
-0.32
-0.32
-0.31
-0.305
-0.295
-0.315
-0.33
-0.315
-0.32
-0.31
-0.3
-0.305
-0.31
-0.305
-0.285
-0.285
-0.3
-0.29
-0.29
-0.28
-0.25
-0.205
-0.195
-0.17
-0.165
-0.095
-0.015
0.1
0.245
0.365
0.52
0.675
0.83
0.98
1.12
1.255
1.35
1.365
1.295
1.13
0.905
0.635
0.4
0.21
0.025
-0.105
-0.23
-0.25
-0.26
-0.235
-0.24
-0.235
-0.265
-0.285
-0.33
-0.33
-0.315
-0.335
-0.34
-0.355
-0.365
-0.365
-0.36
-0.365
-0.36
-0.37
-0.38
-0.39
-0.36
-0.36
-0.37
-0.385
-0.38
-0.39
-0.37
-0.365
-0.37
-0.385
-0.39
-0.405
-0.38
-0.375
-0.37
-0.385
-0.39
-0.375
-0.355
-0.345
-0.355
-0.36
-0.37
-0.365
-0.355
-0.33
-0.34
-0.355
-0.365
-0.36
-0.325
-0.31
-0.315
-0.33
-0.33
-0.33
-0.31
-0.29
-0.3
-0.29
-0.3
-0.29
-0.27
-0.23
-0.23
-0.23
-0.245
-0.235
-0.21
-0.18
-0.175
-0.185
-0.175
-0.17
-0.14
-0.12
-0.12
-0.125
-0.12
-0.11
-0.08
-0.065
-0.05
-0.055
-0.04
-0.02
0
0.015
0.02
0.015
0.01
0.01
0.025
0.02
0.02
0.005
-0.025
-0.03
-0.045
-0.045
-0.06
-0.08
-0.12
-0.12
-0.145
-0.145
-0.165
-0.2
-0.23
-0.225
-0.235
-0.25
-0.265
-0.275
-0.305
-0.3
-0.3
-0.3
-0.315
-0.345
-0.355
-0.355
-0.365
-0.34
-0.345
-0.385
-0.375
-0.375
-0.36
-0.35
-0.37
-0.365
-0.385
-0.375
-0.365
-0.365
-0.37
-0.375
-0.38
-0.375
-0.37
-0.365
-0.37
-0.375
-0.4
-0.395
-0.375
-0.375
-0.355
-0.37
-0.38
-0.38
-0.37
-0.335
-0.34
-0.36
-0.38
-0.37
-0.35
-0.345
-0.345
-0.365
-0.385
-0.375
-0.36
-0.35
-0.355
-0.38
-0.38
-0.375
-0.355
-0.36
-0.35
-0.365
-0.37
-0.38
-0.35
-0.345
-0.365
-0.375
-0.38
-0.375
-0.36
-0.365
-0.355
-0.37
-0.385
-0.38
-0.365
-0.35
-0.365
-0.365
-0.38
-0.37
-0.355
-0.35
-0.375
-0.375
-0.385
-0.38
-0.375
-0.355
-0.345
-0.36
-0.37
-0.375
-0.375
-0.355
-0.355
-0.37
-0.38
-0.38
-0.37
-0.355
-0.35
-0.375
-0.38
-0.37
-0.36
-0.36
-0.36
-0.375
-0.385
-0.39
-0.37
-0.345
-0.36
-0.365
-0.375
-0.38
-0.36
-0.355
-0.36
-0.37
-0.385
-0.37
-0.37
-0.365
-0.365
-0.365
-0.375
-0.375
-0.355
-0.35
-0.35
-0.36
-0.37
-0.39
-0.35
-0.355
-0.365
-0.37
-0.385
-0.385
-0.365
-0.345
-0.35
-0.365
-0.395
-0.37
-0.355
-0.33
-0.35
-0.37
-0.385
-0.37
-0.355
-0.34
-0.34
-0.35
-0.36
-0.36
-0.34
-0.34
-0.355
-0.365
-0.365
-0.355
-0.345
-0.325
-0.34
-0.36
-0.37
-0.35
-0.355
-0.34
-0.34
-0.345
-0.355
-0.35
-0.34
-0.32
-0.335
-0.345
-0.36
-0.34
-0.335
-0.33
-0.33
-0.345
-0.35
-0.34
-0.335
-0.315
-0.335
-0.345
-0.35
-0.35
-0.33
-0.32
-0.335
-0.34
-0.335
-0.34
-0.32
-0.315
-0.32
-0.335
-0.34
-0.34
-0.32
-0.315
-0.31
-0.33
-0.34
-0.325
-0.32
-0.3
-0.32
-0.335
-0.335
-0.33
-0.31
-0.31
-0.31
-0.32
-0.32
-0.315
-0.295
-0.29
-0.305
-0.31
-0.33
-0.33
-0.325
-0.32
-0.325
-0.325
-0.3
-0.29
-0.25
-0.23
-0.24
-0.24
-0.25
-0.25
-0.245
-0.24
-0.23
-0.24
-0.255
-0.26
-0.26
-0.255
-0.27
-0.29
-0.32
-0.305
-0.295
-0.285
-0.295
-0.31
-0.325
-0.3
-0.285
-0.28
-0.28
-0.28
-0.31
-0.295
-0.29
-0.265
-0.27
-0.27
-0.3
-0.275
-0.255
-0.245
-0.245
-0.255
-0.245
-0.225
-0.19
-0.15
-0.13
-0.105
-0.065
0.02
0.155
0.28
0.425
0.545
0.675
0.795
0.935
1.05
1.175
1.24
1.195
1.065
0.88
0.67
0.435
0.225
0.03
-0.105
-0.185
-0.205
-0.21
-0.205
-0.215
-0.22
-0.23
-0.24
-0.255
-0.295
-0.3
-0.305
-0.31
-0.3
-0.315
-0.325
-0.34
-0.345
-0.33
-0.325
-0.325
-0.33
-0.335
-0.34
-0.335
-0.32
-0.32
-0.32
-0.335
-0.335
-0.32
-0.32
-0.31
-0.315
-0.33
-0.33
-0.295
-0.3
-0.295
-0.315
-0.31
-0.305
-0.295
-0.275
-0.275
-0.29
-0.3
-0.285
-0.28
-0.26
-0.27
-0.27
-0.28
-0.255
-0.235
-0.235
-0.225
-0.24
-0.23
-0.23
-0.21
-0.2
-0.205
-0.215
-0.215
-0.185
-0.16
-0.14
-0.13
-0.135
-0.125
-0.105
-0.085
-0.055
-0.055
-0.055
-0.06
-0.04
-0.015
0.01
0.015
0.025
0.025
0.04
0.06
0.065
0.075
0.055
0.055
0.06
0.06
0.065
0.06
0.035
0.025
0.02
-0.005
0
-0.03
-0.055
-0.09
-0.105
-0.11
-0.12
-0.15
-0.17
-0.195
-0.22
-0.24
-0.225
-0.245
-0.275
-0.295
-0.31
-0.285
-0.285
-0.295
-0.315
-0.325
-0.325
-0.315
-0.29
-0.3
-0.33
-0.325
-0.325
-0.325
-0.3
-0.31
-0.33
-0.33
-0.325
-0.32
-0.295
-0.31
-0.33
-0.33
-0.33
-0.325
-0.315
-0.315
-0.325
-0.345
-0.325
-0.315
-0.305
-0.31
-0.33
-0.345
-0.325
-0.33
-0.3
-0.315
-0.32
-0.325
-0.33
-0.305
-0.285
-0.295
-0.32
-0.33
-0.315
-0.3
-0.29
-0.3
-0.305
-0.325
-0.32
-0.305
-0.29
-0.285
-0.315
-0.325
-0.31
-0.315
-0.29
-0.305
-0.31
-0.34
-0.345
-0.315
-0.305
-0.3
-0.315
-0.33
-0.33
-0.31
-0.3
-0.305
-0.31
-0.345
-0.34
-0.315
-0.305
-0.3
-0.33
-0.34
-0.33
-0.33
-0.315
-0.31
-0.33
-0.33
-0.335
-0.315
-0.305
-0.32
-0.33
-0.34
-0.34
-0.33
-0.315
-0.33
-0.335
-0.35
-0.335
-0.34
-0.325
-0.31
-0.325
-0.34
-0.33
-0.33
-0.305
-0.33
-0.33
-0.325
-0.325
-0.31
-0.31
-0.31
-0.335
-0.34
-0.335
-0.32
-0.32
-0.31
-0.325
-0.345
-0.33
-0.325
-0.31
-0.305
-0.325
-0.33
-0.315
-0.31
-0.31
-0.305
-0.32
-0.33
-0.335
-0.32
-0.32
-0.31
-0.325
-0.335
-0.32
-0.315
-0.325
-0.32
-0.32
-0.34
-0.325
-0.315
-0.31
-0.305
-0.325
-0.325
-0.335
-0.335
-0.305
-0.325
-0.335
-0.355
-0.34
-0.315
-0.31
-0.31
-0.32
-0.325
-0.34
-0.315
-0.305
-0.325
-0.32
-0.34
-0.33
-0.315
-0.295
-0.305
-0.33
-0.325
-0.32
-0.31
-0.3
-0.295
-0.315
-0.325
-0.325
-0.32
-0.3
-0.315
-0.32
-0.33
-0.33
-0.325
-0.3
-0.31
-0.32
-0.315
-0.31
-0.295
-0.275
-0.28
-0.295
-0.305
-0.31
-0.29
-0.275
-0.275
-0.29
-0.305
-0.285
-0.265
-0.26
-0.25
-0.25
-0.27
-0.25
-0.23
-0.21
-0.21
-0.225
-0.235
-0.24
-0.24
-0.235
-0.255
-0.275
-0.275
-0.285
-0.275
-0.265
-0.275
-0.285
-0.285
-0.285
-0.27
-0.27
-0.27
-0.285
-0.3
-0.295
-0.275
-0.26
-0.265
-0.27
-0.265
-0.26
-0.265
-0.245
-0.24
-0.24
-0.25
-0.24
-0.225
-0.2
-0.19
-0.185
-0.16
-0.135
-0.09
-0.02
0.045
0.16
0.27
0.425
0.595
0.745
0.88
0.995
1.115
1.235
1.335
1.34
1.22
1.03
0.795
0.585
0.405
0.255
0.065
-0.085
-0.16
-0.21
-0.18
-0.165
-0.17
-0.19
-0.21
-0.225
-0.24
-0.23
-0.25
-0.27
-0.3
-0.31
-0.295
-0.28
-0.295
-0.3
-0.315
-0.295
-0.29
-0.29
-0.29
-0.31
-0.315
-0.315
-0.295
-0.285
-0.3
-0.32
-0.33
-0.305
-0.295
-0.285
-0.28
-0.3
-0.31
-0.29
-0.28
-0.275
-0.28
-0.28
-0.295
-0.28
-0.265
-0.25
-0.25
-0.27
-0.27
-0.28
-0.25
-0.245
-0.23
-0.235
-0.245
-0.24
-0.215
-0.2
-0.2
-0.2
-0.19
-0.185
