-0.5
-0.5
-0.5
-0.5
-0.5
-0.5
-0.5
-0.5
-0.46
-0.4
-0.34
-0.29
-0.275
-0.28
-0.28
-0.285
-0.265
-0.24
-0.215
-0.21
-0.205
-0.195
-0.185
-0.175
-0.17
-0.185
-0.185
-0.17
-0.145
-0.12
-0.095
-0.1
-0.125
-0.115
-0.11
-0.07
-0.055
-0.05
-0.06
-0.05
-0.02
0
0.015
0.025
0.025
0.05
0.09
0.11
0.14
0.145
0.15
0.14
0.14
0.18
0.21
0.225
0.235
0.245
0.25
0.275
0.275
0.26
0.23
0.23
0.205
0.22
0.215
0.175
0.14
0.11
0.09
0.08
0.06
0.035
0
-0.03
-0.04
-0.06
-0.08
-0.115
-0.15
-0.18
-0.19
-0.19
-0.19
-0.22
-0.24
-0.265
-0.28
-0.265
-0.265
-0.27
-0.29
-0.3
-0.31
-0.295
-0.295
-0.305
-0.315
-0.325
-0.305
-0.28
-0.28
-0.28
-0.3
-0.305
-0.31
-0.29
-0.275
-0.28
-0.285
-0.265
-0.26
-0.235
-0.245
-0.26
-0.27
-0.29
-0.27
-0.235
-0.215
-0.22
-0.24
-0.25
-0.25
-0.245
-0.23
-0.23
-0.23
-0.235
-0.22
-0.215
-0.215
-0.225
-0.245
-0.25
-0.24
-0.22
-0.215
-0.225
-0.24
-0.255
-0.235
-0.23
-0.225
-0.24
-0.24
-0.245
-0.23
-0.225
-0.215
-0.225
-0.245
-0.225
-0.19
-0.15
-0.125
-0.11
-0.12
-0.11
-0.085
-0.065
-0.03
-0.005
0.01
0.01
0.025
0.04
0.035
0.025
0.02
0.015
0.02
0.01
-0.025
-0.075
-0.13
-0.165
-0.18
-0.175
-0.19
-0.21
-0.225
-0.24
-0.23
-0.23
-0.25
-0.265
-0.28
-0.275
-0.27
-0.26
-0.245
-0.27
-0.285
-0.29
-0.29
-0.27
-0.25
-0.25
-0.255
-0.255
-0.245
-0.22
-0.205
-0.185
-0.165
-0.095
0.015
0.205
0.425
0.655
0.915
1.135
1.295
1.315
1.13
0.74
0.275
-0.165
-0.47
-0.605
-0.61
-0.59
-0.575
-0.6
-0.615
-0.645
-0.69
-0.725
-0.755
-0.755
-0.73
-0.715
-0.705
-0.725
-0.75
-0.745
-0.715
-0.65
-0.6
-0.55
-0.505
-0.45
-0.365
-0.28
-0.235
-0.195
-0.185
-0.17
-0.155
-0.14
-0.125
-0.105
-0.105
-0.095
-0.085
-0.07
-0.065
-0.075
-0.07
-0.07
-0.04
-0.02
-0.025
-0.025
-0.045
-0.035
-0.01
0.015
0.03
0.02
0.03
0.03
0.05
0.065
0.07
0.075
0.085
0.09
0.13
0.16
0.185
0.19
0.185
0.185
0.22
0.25
0.28
0.27
0.285
0.295
0.32
0.355
0.365
0.37
0.36
0.365
0.395
0.395
0.395
0.355
0.325
0.305
0.29
0.285
0.27
0.23
0.185
0.155
0.12
0.1
0.08
0.05
0.02
0
-0.025
-0.01
-0.02
-0.055
-0.08
-0.09
-0.1
-0.11
-0.115
-0.12
-0.14
-0.17
-0.17
-0.16
-0.165
-0.19
-0.205
-0.195
-0.175
-0.16
-0.16
-0.19
-0.2
-0.19
-0.18
-0.16
-0.15
-0.17
-0.175
-0.19
-0.175
-0.15
-0.14
-0.14
-0.145
-0.145
-0.145
-0.135
-0.135
-0.145
-0.15
-0.15
-0.135
-0.125
-0.105
-0.125
-0.16
-0.165
-0.145
-0.125
-0.12
-0.125
-0.15
-0.145
-0.155
-0.135
-0.15
-0.14
-0.145
-0.145
-0.135
-0.125
-0.13
-0.14
-0.155
-0.165
-0.155
-0.135
-0.12
-0.12
-0.14
-0.155
-0.145
-0.135
-0.11
-0.1
-0.095
-0.095
-0.06
-0.03
-0.015
0
0.01
0.02
0.05
0.095
0.105
0.12
0.13
0.135
0.135
0.145
0.16
0.17
0.135
0.115
0.075
0.04
0.005
-0.03
-0.065
-0.08
-0.105
-0.085
-0.125
-0.145
-0.135
-0.145
-0.135
-0.15
-0.135
-0.145
-0.16
-0.18
-0.17
-0.16
-0.135
-0.15
-0.16
-0.165
-0.16
-0.135
-0.135
-0.135
-0.125
-0.135
-0.105
-0.05
0.005
0.085
0.18
0.36
0.61
0.875
1.12
1.305
1.35
1.24
0.93
0.5
0.08
-0.27
-0.42
-0.435
-0.385
-0.37
-0.4
-0.465
-0.515
-0.555
-0.57
-0.555
-0.535
-0.555
-0.585
-0.595
-0.605
-0.615
-0.605
-0.585
-0.56
-0.52
-0.47
-0.41
-0.355
-0.32
-0.275
-0.23
-0.155
-0.105
-0.06
-0.06
-0.055
-0.05
-0.035
0
0.015
0.02
0.025
0.02
0.025
0.045
0.06
0.035
0.01
0.025
0.055
0.07
0.08
0.09
0.085
0.065
0.085
0.105
0.105
0.095
0.115
0.125
0.145
0.18
0.19
0.2
0.175
0.195
0.215
0.23
0.25
0.26
0.25
0.275
0.285
0.32
0.325
0.335
0.34
0.35
0.375
0.4
0.405
0.395
0.38
0.37
0.385
0.395
0.39
0.375
0.335
0.32
0.305
0.295
0.29
0.25
0.235
0.21
0.195
0.185
0.17
0.13
0.075
0.065
0.05
0.05
0.045
0.025
0
-0.025
-0.035
-0.045
-0.045
-0.065
-0.08
-0.095
-0.085
-0.08
-0.085
-0.095
-0.12
-0.125
-0.1
-0.1
-0.09
-0.095
-0.11
-0.115
-0.11
-0.095
-0.095
-0.105
-0.11
-0.11
-0.09
-0.075
-0.085
-0.1
-0.135
-0.105
-0.085
-0.085
-0.075
-0.07
-0.095
-0.105
-0.09
-0.075
-0.065
-0.07
-0.085
-0.11
-0.11
-0.095
-0.07
-0.08
-0.1
-0.1
-0.1
-0.08
-0.08
-0.1
-0.12
-0.13
-0.115
-0.105
-0.1
-0.115
-0.145
-0.12
-0.105
-0.095
-0.1
-0.1
-0.125
-0.135
-0.115
-0.09
-0.075
-0.085
-0.11
-0.1
-0.075
-0.05
-0.03
-0.015
-0.005
-0.015
0.005
0.02
0.065
0.095
0.095
0.115
0.145
0.165
0.16
0.125
0.095
0.09
0.1
0.09
0.085
0.045
-0.005
-0.06
-0.08
-0.085
-0.105
-0.12
-0.14
-0.155
-0.155
-0.16
-0.175
-0.18
-0.205
-0.225
-0.22
-0.195
-0.195
-0.195
-0.23
-0.225
-0.22
-0.21
-0.215
-0.215
-0.255
-0.235
-0.205
-0.19
-0.185
-0.175
-0.18
-0.175
-0.15
-0.06
0.045
0.19
0.37
0.615
0.865
1.08
1.205
1.185
0.93
0.53
0.1
-0.24
-0.44
-0.515
-0.495
-0.51
-0.515
-0.525
-0.565
-0.61
-0.65
-0.675
-0.69
-0.665
-0.685
-0.685
-0.72
-0.72
-0.73
-0.705
-0.69
-0.675
-0.66
-0.63
-0.57
-0.495
-0.435
-0.36
-0.32
-0.265
-0.24
-0.22
-0.21
-0.21
-0.22
-0.195
-0.165
-0.145
-0.16
-0.16
-0.175
-0.17
-0.17
-0.125
-0.125
-0.11
-0.125
-0.135
-0.12
-0.105
-0.105
-0.105
-0.12
-0.105
-0.09
-0.06
-0.045
-0.05
-0.065
-0.075
-0.06
-0.045
-0.025
-0.025
-0.02
-0.005
0.01
0.03
0.04
0.045
0.035
0.035
0.075
0.11
0.13
0.115
0.12
0.115
0.145
0.155
0.16
0.17
0.145
0.14
0.14
0.145
0.135
0.105
0.065
0.05
0.05
0.035
0.02
-0.01
-0.045
-0.07
-0.085
-0.095
-0.11
-0.14
-0.17
-0.18
-0.195
-0.19
-0.225
-0.25
-0.285
-0.3
-0.31
-0.3
-0.31
-0.325
-0.36
-0.37
-0.36
-0.345
-0.33
-0.34
-0.37
-0.375
-0.37
-0.37
-0.365
-0.365
-0.38
-0.37
-0.34
-0.34
-0.335
-0.36
-0.375
-0.385
-0.365
-0.34
-0.345
-0.36
-0.37
-0.375
-0.375
-0.365
-0.36
-0.37
-0.375
-0.355
-0.355
-0.34
-0.345
-0.365
-0.385
-0.39
-0.38
-0.36
-0.345
-0.36
-0.385
-0.395
-0.4
-0.39
-0.37
-0.385
-0.385
-0.36
-0.35
-0.32
-0.32
-0.32
-0.33
-0.315
-0.29
-0.255
-0.225
-0.205
-0.2
-0.185
-0.16
-0.15
-0.155
-0.15
-0.17
-0.18
-0.17
-0.195
-0.205
-0.245
-0.29
-0.325
-0.355
-0.36
-0.39
-0.405
-0.425
-0.455
-0.45
-0.465
-0.465
-0.47
-0.485
-0.505
-0.505
-0.5
-0.495
-0.51
-0.52
-0.525
-0.51
-0.49
-0.47
-0.485
-0.505
-0.52
-0.485
-0.47
-0.47
-0.465
-0.465
-0.455
-0.415
-0.34
-0.25
-0.11
0.08
0.33
0.605
0.835
0.97
0.955
0.785
0.445
0.03
-0.345
-0.62
-0.745
-0.75
-0.715
-0.71
-0.74
-0.765
-0.82
-0.86
-0.88
-0.88
-0.865
-0.86
-0.86
-0.88
-0.915
-0.925
-0.93
-0.905
-0.885
-0.84
-0.8
-0.74
-0.695
-0.645
-0.62
-0.575
-0.5
-0.43
-0.365
-0.335
-0.32
-0.325
-0.325
-0.315
-0.3
-0.27
-0.26
-0.26
-0.245
-0.23
-0.225
-0.215
-0.21
-0.225
-0.215
-0.185
-0.165
-0.15
-0.16
-0.16
-0.175
-0.155
-0.12
-0.115
-0.1
-0.105
-0.09
-0.075
-0.05
-0.04
-0.03
-0.05
-0.03
-0.01
0.025
0.045
0.04
0.035
0.045
0.055
0.09
0.1
0.11
0.135
0.155
0.17
0.185
0.185
0.165
0.15
0.165
0.165
0.18
0.175
0.14
0.125
0.1
0.1
0.07
0.06
0.015
-0.015
-0.01
-0.005
-0.02
-0.035
-0.08
-0.105
-0.1
-0.12
-0.145
-0.17
-0.185
-0.2
-0.205
-0.2
-0.215
-0.24
-0.27
-0.28
-0.27
-0.27
-0.26
-0.26
-0.275
-0.285
-0.28
-0.285
-0.27
-0.285
-0.285
-0.285
-0.27
-0.26
-0.255
-0.265
-0.275
-0.285
-0.285
-0.26
-0.255
-0.245
-0.26
-0.265
-0.255
-0.245
-0.255
-0.255
-0.265
-0.255
-0.245
-0.225
-0.23
-0.23
-0.25
-0.265
-0.25
-0.245
-0.235
-0.26
-0.255
-0.26
-0.245
-0.225
-0.23
-0.235
-0.26
-0.27
-0.255
-0.24
-0.22
-0.22
-0.24
-0.23
-0.245
-0.23
-0.21
-0.235
-0.245
-0.225
-0.18
-0.155
-0.145
-0.14
-0.145
-0.145
-0.12
-0.105
-0.07
-0.06
-0.035
-0.025
0
0.025
0.01
0.015
-0.01
-0.005
0.015
0.025
0.015
0
-0.045
-0.09
-0.125
-0.14
-0.16
-0.185
-0.22
-0.23
-0.23
-0.235
-0.24
-0.27
-0.285
-0.305
-0.305
-0.3
-0.295
-0.31
-0.305
-0.31
-0.295
-0.295
-0.3
-0.32
-0.325
-0.325
-0.305
-0.285
-0.26
-0.28
-0.295
-0.305
-0.29
-0.25
-0.26
-0.245
-0.215
-0.17
-0.055
0.075
0.235
0.43
0.64
0.88
1.09
1.25
1.3
1.205
0.96
0.6
0.215
-0.135
-0.4
-0.575
-0.63
-0.63
-0.59
-0.57
-0.595
-0.64
-0.695
-0.73
-0.755
-0.755
-0.73
-0.73
-0.73
-0.735
-0.74
-0.75
-0.755
-0.78
-0.765
-0.745
-0.69
-0.63
-0.57
-0.54
-0.505
-0.445
-0.385
-0.315
-0.265
-0.235
-0.23
-0.215
-0.185
-0.155
-0.14
-0.125
-0.13
-0.14
-0.12
-0.105
-0.105
-0.095
-0.105
-0.1
-0.09
-0.07
-0.05
-0.07
-0.065
-0.06
-0.045
-0.025
-0.005
-0.015
-0.015
-0.02
-0.005
0.01
0.035
0.04
0.035
0.055
0.065
0.095
0.105
0.105
0.105
0.115
0.15
0.165
0.17
0.175
0.185
0.175
0.205
0.23
0.25
0.25
0.26
0.25
0.25
0.285
0.315
0.315
0.31
0.32
0.33
0.34
0.335
0.325
0.295
0.28
0.27
0.265
0.245
0.23
0.195
0.165
0.14
0.14
0.115
0.075
0.05
0.025
0.03
0.02
0.015
-0.02
-0.055
-0.08
-0.085
-0.08
-0.08
-0.11
-0.135
-0.14
-0.155
-0.145
-0.15
-0.175
-0.185
-0.2
-0.185
-0.17
-0.165
-0.19
-0.22
-0.22
-0.225
-0.21
-0.21
-0.23
-0.22
-0.235
-0.21
-0.21
-0.205
-0.23
-0.24
-0.23
-0.225
-0.205
-0.205
-0.2
-0.195
-0.19
-0.185
-0.165
-0.17
-0.19
-0.195
-0.2
-0.195
-0.18
-0.18
-0.18
-0.195
-0.205
-0.185
-0.16
-0.165
-0.165
-0.2
-0.2
-0.2
-0.2
-0.175
-0.175
-0.19
-0.205
-0.215
-0.2
-0.185
-0.19
-0.2
-0.2
-0.19
-0.17
-0.175
-0.195
-0.215
-0.215
-0.215
-0.19
-0.195
-0.205
-0.2
-0.21
-0.205
-0.17
-0.16
-0.18
-0.19
-0.18
-0.16
-0.125
-0.115
-0.09
-0.09
-0.1
-0.075
-0.05
-0.04
-0.035
-0.05
-0.02
0.03
0.065
0.075
0.08
0.05
0.04
0.04
0.04
0.04
0
-0.04
-0.095
-0.095
-0.12
-0.14
-0.165
-0.205
-0.21
-0.205
-0.205
-0.205
-0.23
-0.25
-0.25
-0.25
-0.25
-0.255
-0.275
-0.3
-0.305
-0.295
-0.28
-0.275
-0.285
-0.29
-0.3
-0.285
-0.28
-0.26
-0.265
-0.28
-0.275
-0.245
-0.23
-0.22
-0.205
-0.21
-0.19
-0.13
-0.04
0.04
0.165
0.305
0.475
0.69
0.895
1.065
1.19
1.245
1.19
1.015
0.72
0.32
-0.1
-0.45
-0.615
-0.64
-0.585
-0.56
-0.59
-0.635
-0.67
-0.7
-0.72
-0.735
-0.725
-0.75
-0.75
-0.75
-0.745
-0.73
-0.735
-0.705
-0.66
-0.61
-0.565
-0.51
-0.465
-0.44
-0.375
-0.315
-0.26
-0.225
-0.195
-0.19
-0.19
-0.17
-0.15
-0.13
-0.13
-0.125
-0.115
-0.1
-0.085
-0.09
-0.09
-0.105
-0.095
-0.08
-0.06
-0.06
-0.05
-0.045
-0.04
-0.035
-0.01
0.005
0.005
-0.015
0
0.02
0.035
0.045
0.03
0.025
0.03
0.06
0.085
0.095
0.1
0.115
0.125
0.13
0.16
0.17
0.175
0.18
0.18
0.21
0.25
0.26
0.26
0.25
0.265
0.275
0.305
0.33
0.315
0.29
0.28
0.265
0.25
0.24
0.21
0.18
0.165
0.14
0.145
0.13
0.08
0.055
0.03
0.02
0.015
0.01
-0.025
-0.055
-0.08
-0.08
-0.075
-0.095
-0.125
-0.15
-0.18
-0.175
-0.165
-0.17
-0.19
-0.215
-0.235
-0.23
-0.205
-0.21
-0.21
-0.225
-0.225
-0.215
-0.185
-0.195
-0.225
-0.25
-0.245
-0.235
-0.22
-0.2
-0.195
-0.21
-0.205
-0.2
-0.195
-0.2
-0.215
-0.225
-0.23
-0.215
-0.205
-0.205
-0.19
-0.19
-0.21
-0.205
-0.19
-0.19
-0.175
-0.195
-0.2
-0.195
-0.175
-0.175
-0.195
-0.215
-0.225
-0.22
-0.195
-0.195
-0.195
-0.2
-0.23
-0.21
-0.2
-0.205
-0.215
-0.235
-0.24
-0.205
-0.205
-0.2
-0.21
-0.225
-0.22
-0.225
-0.22
-0.22
-0.225
-0.24
-0.235
-0.215
-0.195
-0.19
-0.2
-0.21
-0.185
-0.16
-0.13
-0.11
-0.105
-0.11
-0.085
-0.065
-0.04
-0.025
-0.025
-0.035
-0.02
0.015
0.03
0.05
0.035
0.035
0.03
0.04
0.05
0.055
0.045
0.025
0.01
0.01
-0.005
-0.025
-0.05
-0.09
-0.125
-0.145
-0.17
-0.19
-0.23
-0.245
-0.255
-0.27
-0.27
-0.27
-0.295
-0.315
-0.325
-0.325
-0.3
-0.31
-0.315
-0.325
-0.33
-0.33
-0.31
-0.29
-0.305
-0.31
-0.3
-0.29
-0.255
-0.255
-0.25
-0.26
-0.255
-0.24
-0.21
-0.18
-0.14
-0.115
-0.035
0.095
0.255
0.41
0.605
0.805
0.98
1.135
1.155
0.945
0.525
0.035
-0.35
-0.555
-0.555
-0.5
-0.515
-0.585
-0.635
-0.655
-0.665
-0.68
-0.7
-0.715
-0.71
-0.72
-0.725
-0.73
-0.72
-0.74
-0.75
-0.75
-0.745
-0.755
-0.74
-0.745
-0.72
-0.68
-0.645
-0.61
-0.59
-0.56
-0.51
-0.475
-0.375
-0.32
-0.275
-0.24
-0.215
-0.2
-0.185
-0.165
-0.15
-0.16
-0.14
-0.13
-0.125
-0.12
-0.125
-0.125
-0.12
-0.12
-0.085
-0.07
-0.095
-0.115
-0.105
-0.085
-0.07
-0.05
-0.075
-0.08
-0.07
-0.055
-0.04
-0.02
-0.035
-0.04
-0.03
-0.02
0
0.015
0.01
0.01
0.02
0.055
0.085
0.1
0.1
0.08
0.1
0.135
0.16
0.18
0.19
0.175
0.175
0.19
0.215
0.21
0.21
0.2
0.195
0.215
0.215
0.215
0.215
0.19
0.175
0.165
0.165
0.14
0.115
0.085
0.06
0.05
0.045
0
-0.025
-0.055
-0.07
-0.095
-0.09
-0.09
-0.115
-0.14
-0.18
-0.18
-0.18
-0.2
-0.22
-0.24
-0.245
-0.265
-0.24
-0.235
-0.26
-0.265
-0.28
-0.28
-0.255
-0.255
-0.25
-0.27
-0.27
-0.26
-0.25
-0.25
-0.275
-0.275
-0.29
-0.275
-0.25
-0.25
-0.25
-0.26
-0.265
-0.265
-0.265
-0.265
-0.285
-0.29
-0.28
-0.26
-0.24
-0.24
-0.245
-0.28
-0.295
-0.28
-0.255
-0.25
-0.255
-0.275
-0.275
-0.28
-0.275
-0.275
-0.28
-0.3
-0.31
-0.315
-0.29
-0.265
-0.285
-0.295
-0.3
-0.3
-0.305
-0.295
-0.3
-0.31
-0.305
-0.27
-0.25
-0.235
-0.225
-0.215
-0.215
-0.185
-0.16
-0.14
-0.125
-0.105
-0.095
-0.075
-0.055
-0.045
-0.055
-0.075
-0.1
-0.1
-0.125
-0.155
-0.235
-0.275
-0.295
-0.31
-0.305
-0.315
-0.345
-0.37
-0.385
-0.39
-0.385
-0.385
-0.4
-0.415
-0.42
-0.415
-0.43
-0.415
-0.44
-0.465
-0.46
-0.45
-0.43
-0.43
-0.425
-0.46
-0.465
-0.435
-0.41
-0.38
-0.375
-0.35
-0.285
-0.18
-0.01
0.18
0.415
0.65
0.845
0.955
0.935
0.695
0.32
-0.09
-0.425
-0.615
-0.675
-0.645
-0.65
-0.67
-0.71
-0.75
-0.775
-0.81
-0.86
-0.89
-0.88
-0.86
-0.845
-0.865
-0.905
-0.93
-0.945
-0.915
-0.865
-0.81
-0.77
-0.75
-0.73
-0.635
-0.59
-0.52
-0.47
-0.43
-0.41
-0.385
-0.37
-0.37
-0.375
-0.39
-0.38
-0.355
-0.35
-0.335
-0.345
-0.33
-0.32
-0.33
-0.31
-0.29
-0.305
-0.295
-0.3
-0.275
-0.265
-0.26
-0.275
-0.295
-0.29
-0.275
-0.25
-0.235
-0.215
-0.22
-0.215
-0.2
-0.195
-0.195
-0.18
-0.18
-0.155
-0.135
-0.11
-0.08
-0.085
-0.105
-0.09
-0.065
-0.04
-0.02
-0.01
-0.005
-0.01
0.005
0.015
0.01
0.005
-0.02
-0.03
-0.03
-0.015
-0.05
-0.095
-0.105
-0.145
-0.15
-0.16
-0.17
-0.205
-0.235
-0.275
-0.26
-0.25
-0.27
-0.305
-0.355
-0.36
-0.35
-0.34
-0.355
-0.375
-0.4
-0.41
-0.415
-0.42
-0.43
-0.445
-0.47
-0.48
-0.47
-0.43
-0.435
-0.45
-0.47
-0.485
-0.485
-0.465
-0.46
-0.455
-0.475
-0.47
-0.455
-0.44
-0.445
-0.465
-0.485
-0.475
-0.475
-0.44
-0.43
-0.45
-0.44
-0.445
-0.425
-0.415
-0.435
-0.43
-0.445
-0.46
-0.44
-0.425
-0.415
-0.425
-0.435
-0.44
-0.445
-0.425
-0.425
-0.44
-0.435
-0.435
-0.42
-0.42
-0.41
-0.425
-0.44
-0.43
-0.405
-0.38
-0.35
-0.34
-0.34
-0.34
-0.33
-0.325
-0.305
-0.305
-0.3
-0.27
-0.23
-0.175
-0.145
-0.15
-0.155
-0.185
-0.17
-0.15
-0.15
-0.17
-0.2
-0.23
-0.25
-0.285
-0.32
-0.37
-0.41
-0.425
-0.42
-0.415
-0.415
-0.425
-0.435
-0.44
-0.45
-0.445
-0.455
-0.455
-0.47
-0.48
-0.465
-0.455
-0.445
-0.455
-0.465
-0.47
-0.45
-0.465
-0.445
-0.44
-0.435
-0.43
-0.42
-0.405
-0.41
-0.42
-0.41
-0.405
-0.35
-0.295
-0.24
-0.165
-0.065
0.095
0.325
0.58
0.805
1
1.11
1.095
0.945
0.62
0.22
-0.23
-0.54
-0.7
-0.685
-0.63
-0.62
-0.645
-0.705
-0.775
-0.79
-0.785
-0.815
-0.82
-0.82
-0.815
-0.8
-0.805
-0.815
-0.81
-0.84
-0.815
-0.775
-0.71
-0.67
-0.625
-0.59
-0.555
-0.485
-0.41
-0.37
-0.33
-0.295
-0.275
-0.235
-0.21
-0.195
-0.185
-0.18
-0.17
-0.175
-0.135
-0.11
-0.105
-0.115
-0.105
-0.085
-0.06
-0.065
-0.065
-0.075
-0.06
-0.035
-0.01
0.025
0.02
0.01
0.01
0.02
0.06
0.07
0.075
0.11
0.13
0.15
0.175
0.185
0.185
0.21
0.24
0.265
0.295
0.29
0.29
0.3
0.305
0.34
0.35
0.37
0.37
0.36
0.35
0.34
0.35
0.335
0.31
0.285
0.265
0.255
0.235
0.205
0.16
0.145
0.125
0.12
0.095
0.075
0.04
0.005
-0.015
-0.015
-0.015
-0.015
-0.03
-0.04
-0.05
-0.045
-0.045
-0.045
-0.055
-0.07
-0.075
-0.07
-0.065
-0.055
-0.065
-0.065
-0.055
-0.055
-0.035
-0.035
-0.03
-0.04
-0.045
-0.025
-0.01
0
-0.005
-0.025
-0.035
-0.035
0.015
0.02
0.015
-0.02
-0.02
-0.02
-0.005
-0.005
-0.005
-0.01
-0.005
0.035
0.045
0.055
0.075
0.08
0.1
0.115
0.155
0.17
0.175
0.185
0.2
0.21
0.23
0.25
0.23
0.215
0.21
0.19
0.15
0.145
0.085
0.05
0.01
-0.005
-0.015
-0.025
-0.055
-0.075
-0.095
-0.09
-0.08
-0.07
-0.085
-0.125
-0.12
-0.13
-0.115
-0.125
-0.135
-0.14
-0.13
-0.115
-0.11
-0.115
-0.13
-0.13
-0.13
-0.1
-0.065
-0.04
-0.02
-0.015
0.035
0.125
0.295
0.48
0.71
0.94
1.155
1.33
1.35
1.14
0.735
0.265
-0.13
-0.36
-0.395
-0.35
-0.345
-0.4
-0.47
-0.505
-0.515
-0.53
-0.565
-0.57
-0.565
-0.55
-0.54
-0.565
-0.59
-0.62
-0.605
-0.55
-0.48
-0.435
-0.39
-0.355
-0.295
-0.235
-0.15
-0.08
-0.045
-0.045
-0.02
-0.005
0.015
0.02
0.03
0.03
0.03
0.05
0.085
0.095
0.085
0.07
0.065
0.08
0.1
0.1
0.115
0.1
0.115
0.13
0.14
0.14
0.13
0.135
0.15
0.175
0.2
0.21
0.21
0.185
0.215
0.225
0.245
0.275
0.28
0.28
0.295
0.32
0.335
0.365
0.36
0.36
0.385
0.405
0.43
0.415
0.41
0.395
0.38
0.39
0.395
0.4
0.385
0.345
0.315
0.29
0.285
0.255
0.235
0.195
0.18
0.15
0.13
0.115
0.085
0.055
0.035
0.025
0.015
0.01
-0.015
-0.06
-0.08
-0.085
-0.075
-0.08
-0.09
-0.105
-0.11
-0.085
-0.085
-0.09
-0.105
-0.13
-0.115
-0.105
-0.085
-0.1
-0.11
-0.13
-0.125
-0.11
-0.085
-0.1
-0.085
-0.1
-0.09
-0.085
-0.09
-0.11
-0.12
-0.105
-0.09
-0.075
-0.065
-0.07
-0.085
-0.1
-0.11
-0.08
-0.065
-0.05
-0.07
-0.105
-0.09
-0.075
-0.04
-0.005
0.005
-0.015
-0.005
0.025
0.06
0.085
0.095
0.11
0.135
0.16
0.165
0.155
0.145
0.13
0.13
0.11
0.085
0.05
-0.02
-0.075
-0.105
-0.11
-0.11
-0.125
-0.15
-0.175
-0.205
-0.2
-0.195
-0.195
-0.195
-0.205
-0.23
-0.235
-0.225
-0.225
-0.22
-0.24
-0.23
-0.23
-0.195
-0.185
-0.2
-0.205
-0.215
-0.18
-0.14
-0.1
-0.025
0.09
0.275
0.51
0.795
1.05
1.225
1.265
1.09
0.745
0.305
-0.12
-0.415
-0.535
-0.5
-0.455
-0.455
-0.515
-0.58
-0.625
-0.675
-0.665
-0.645
-0.635
-0.655
-0.68
-0.695
-0.715
-0.705
-0.67
-0.63
-0.58
-0.53
-0.46
-0.415
-0.34
-0.29
-0.265
-0.21
-0.18
-0.15
-0.135
-0.125
-0.13
-0.125
-0.13
-0.11
-0.095
-0.095
-0.105
-0.095
-0.08
-0.06
-0.065
-0.055
-0.07
-0.08
-0.055
-0.03
-0.015
-0.01
-0.03
-0.03
-0.02
0.01
0.015
0.02
0.02
0.025
0.04
0.065
0.09
0.1
0.095
0.105
0.12
0.15
0.165
0.17
0.165
0.17
0.2
0.21
0.215
0.22
0.225
0.225
0.235
0.26
0.25
0.21
0.19
0.16
0.155
0.165
0.14
0.11
0.065
0.035
0.015
0
-0.02
-0.03
-0.055
-0.08
-0.105
-0.1
-0.13
-0.16
-0.185
-0.195
-0.205
-0.19
-0.195
-0.225
-0.255
-0.265
-0.265
-0.25
-0.25
-0.26
-0.275
-0.29
-0.27
-0.26
-0.27
-0.27
-0.285
-0.305
-0.28
-0.28
-0.265
-0.28
-0.295
-0.305
-0.285
-0.28
-0.275
-0.28
-0.29
-0.28
-0.275
-0.29
-0.3
-0.295
-0.3
-0.3
-0.265
-0.255
-0.255
-0.27
-0.285
-0.295
-0.295
-0.28
-0.275
-0.28
-0.305
-0.29
-0.29
-0.3
-0.3
-0.31
-0.32
-0.325
-0.295
-0.275
-0.255
-0.25
-0.255
-0.235
-0.21
-0.19
-0.175
-0.17
-0.16
-0.15
-0.115
-0.09
-0.08
-0.065
-0.075
-0.07
-0.07
-0.075
-0.075
-0.11
-0.16
-0.19
-0.23
-0.26
-0.29
-0.325
-0.36
-0.375
-0.405
-0.39
-0.405
-0.43
-0.445
-0.45
-0.445
-0.445
-0.45
-0.47
-0.495
-0.5
-0.5
-0.475
-0.48
-0.485
-0.505
-0.505
-0.51
-0.485
-0.495
-0.495
-0.495
-0.47
-0.45
-0.405
-0.375
-0.295
-0.195
-0.03
0.205
0.445
0.675
0.86
0.97
0.93
0.665
0.27
-0.2
-0.615
-0.845
-0.865
-0.8
-0.785
-0.83
-0.885
-0.945
-0.98
-0.995
-1.005
-0.995
-0.99
-1.015
-1.04
-1.06
-1.06
-1.06
-1.05
-1.035
-0.97
-0.925
-0.885
-0.84
-0.795
-0.75
-0.685
-0.64
-0.605
-0.575
-0.575
-0.575
-0.585
-0.565
-0.535
-0.52
-0.515
-0.515
-0.52
-0.51
-0.51
-0.515
-0.49
-0.5
-0.485
-0.465
-0.46
-0.46
-0.47
-0.475
-0.48
-0.465
-0.46
-0.425
-0.425
-0.445
-0.43
-0.42
-0.4
-0.39
-0.385
-0.38
-0.37
-0.345
-0.32
-0.295
-0.295
-0.3
-0.3
-0.285
-0.255
-0.225
-0.23
-0.22
-0.215
-0.2
-0.185
-0.17
-0.175
-0.2
-0.21
-0.205
-0.215
-0.23
-0.275
-0.305
-0.34
-0.36
-0.36
-0.365
-0.42
-0.455
-0.475
-0.48
-0.49
-0.51
-0.525
-0.555
-0.575
-0.57
-0.575
-0.58
-0.615
-0.655
-0.665
-0.665
-0.64
-0.635
-0.645
-0.665
-0.685
-0.675
-0.675
-0.67
-0.685
-0.705
-0.7
-0.675
-0.655
-0.66
-0.675
-0.68
-0.685
-0.67
-0.645
-0.64
-0.65
-0.665
-0.66
-0.635
-0.63
-0.635
-0.64
-0.65
-0.64
-0.625
-0.595
-0.605
-0.625
-0.625
-0.645
-0.635
-0.605
-0.6
-0.6
-0.615
-0.625
-0.61
-0.6
-0.595
-0.61
-0.615
-0.61
-0.585
-0.545
-0.53
-0.54
-0.54
-0.55
-0.51
-0.475
-0.465
-0.455
-0.435
-0.415
-0.39
-0.37
-0.37
-0.375
-0.38
-0.38
-0.365
-0.35
-0.37
-0.395
-0.43
-0.455
-0.505
-0.53
-0.555
-0.575
-0.59
-0.61
-0.63
-0.63
-0.64
-0.65
-0.655
-0.65
-0.64
-0.635
-0.64
-0.665
-0.68
-0.69
-0.675
-0.665
-0.665
-0.665
-0.665
-0.645
-0.645
-0.63
-0.65
-0.64
-0.64
-0.62
-0.605
-0.565
-0.545
-0.485
-0.4
-0.275
-0.08
0.175
0.43
0.66
0.835
0.915
0.825
0.56
0.14
-0.305
-0.675
-0.88
-0.885
-0.845
-0.83
-0.87
-0.925
-0.955
-0.98
-0.995
-1.02
-1.02
-1.02
-1.005
-1
-1.005
-1.025
-1.06
-1.085
-1.075
-1.025
-0.96
-0.925
-0.895
-0.855
-0.825
-0.75
-0.68
-0.615
-0.565
-0.53
-0.505
-0.485
-0.46
-0.455
-0.465
-0.46
-0.445
-0.425
-0.39
-0.38
-0.395
-0.39
-0.39
-0.385
-0.37
-0.365
-0.345
-0.345
-0.33
-0.32
-0.3
-0.29
-0.285
-0.29
-0.295
-0.28
-0.25
-0.235
-0.23
-0.225
-0.21
-0.19
-0.175
-0.16
-0.165
-0.145
-0.14
-0.095
-0.06
-0.035
-0.035
-0.04
-0.035
0
0.02
0.05
0.055
0.06
0.065
0.09
0.11
0.11
0.1
0.07
0.075
0.085
0.095
0.075
0.04
-0.005
-0.02
-0.03
-0.04
-0.065
-0.085
-0.115
-0.13
-0.145
-0.155
-0.175
-0.205
-0.235
-0.25
-0.27
-0.24
-0.26
-0.27
-0.305
-0.33
-0.33
-0.34
-0.335
-0.335
-0.34
-0.35
-0.34
-0.34
-0.34
-0.37
-0.385
-0.37
-0.335
-0.32
-0.315
-0.325
-0.335
-0.34
-0.315
-0.3
-0.29
-0.29
-0.305
-0.295
-0.285
-0.26
-0.265
-0.28
-0.295
-0.29
-0.285
-0.25
-0.25
-0.25
-0.26
-0.26
-0.255
-0.23
-0.23
-0.235
-0.265
-0.27
-0.265
-0.225
-0.21
-0.205
-0.225
-0.245
-0.235
-0.22
-0.225
-0.22
-0.22
-0.205
-0.185
-0.135
-0.125
-0.125
-0.11
-0.13
-0.1
-0.07
-0.03
-0.02
0
0.01
0.035
0.065
0.07
0.055
0.055
0.055
0.06
0.07
0.07
0.045
0.015
-0.035
-0.065
-0.1
-0.13
-0.14
-0.165
-0.185
-0.19
-0.19
-0.21
-0.215
-0.24
-0.25
-0.245
-0.24
-0.22
-0.26
-0.265
-0.285
-0.27
-0.25
-0.235
-0.225
-0.24
-0.245
-0.23
-0.215
-0.215
-0.205
-0.195
-0.155
-0.11
-0.005
0.12
0.3
0.525
0.81
1.085
1.31
1.38
1.265
0.915
0.415
-0.05
-0.395
-0.545
-0.56
-0.535
-0.51
-0.515
-0.55
-0.585
-0.63
-0.645
-0.68
-0.65
-0.62
-0.625
-0.635
-0.65
-0.675
-0.68
-0.665
-0.615
-0.58
-0.56
-0.5
-0.45
-0.365
-0.33
-0.275
-0.23
-0.185
-0.14
-0.09
-0.07
-0.065
-0.065
-0.065
-0.055
-0.05
-0.045
-0.03
-0.02
-0.02
0.005
0.025
0.02
0.01
0
0.005
0
0.03
0.06
0.06
0.05
0.045
0.065
0.08
0.09
0.085
0.085
0.095
0.125
0.15
0.16
0.165
0.16
0.16
0.19
0.22
0.255
0.26
0.27
0.29
0.3
0.32
0.335
0.33
0.335
0.36
0.38
0.41
0.405
0.415
0.4
0.4
0.405
0.405
0.405
0.39
0.365
0.355
0.33
0.35
0.325
0.3
0.25
0.225
0.215
0.195
0.165
0.155
0.1
0.095
0.095
0.085
0.065
0.035
0.005
-0.02
-0.03
-0.005
-0.015
-0.03
-0.05
-0.065
-0.06
-0.055
-0.09
-0.095
-0.125
-0.135
-0.13
-0.105
-0.105
-0.115
-0.16
-0.15
-0.15
-0.135
-0.14
-0.15
-0.165
-0.17
-0.155
-0.135
-0.135
-0.145
-0.15
-0.145
-0.15
-0.14
-0.145
-0.15
-0.165
-0.155
-0.16
-0.145
-0.125
-0.14
-0.155
-0.145
-0.14
-0.12
-0.12
-0.145
-0.145
-0.145
-0.12
-0.105
-0.105
-0.115
-0.13
-0.145
-0.12
-0.125
-0.13
-0.145
-0.145
-0.13
-0.115
-0.095
-0.09
-0.11
-0.12
-0.135
-0.14
-0.135
-0.13
-0.125
-0.145
-0.135
-0.125
-0.115
-0.105
-0.125
-0.135
-0.15
-0.14
-0.125
-0.12
-0.11
-0.095
-0.08
-0.05
-0.03
-0.035
-0.03
-0.03
-0.03
-0.01
0.015
0.03
0.045
0.04
0.07
0.1
0.135
0.12
0.12
0.105
0.105
0.1
0.12
0.125
0.115
0.09
0.05
0.035
0.02
-0.015
-0.085
-0.12
-0.15
-0.15
-0.14
-0.155
-0.165
-0.175
-0.205
-0.195
-0.2
-0.22
-0.235
-0.25
-0.23
-0.23
-0.21
-0.22
-0.23
-0.26
-0.26
-0.255
-0.26
-0.265
-0.26
-0.26
-0.26
-0.225
-0.22
-0.21
-0.22
-0.24
-0.24
-0.205
-0.165
-0.135
-0.065
0.025
0.135
0.325
0.55
0.765
0.99
1.2
1.365
1.42
1.365
1.145
0.755
0.335
-0.065
-0.37
-0.53
-0.565
-0.53
-0.495
-0.495
-0.5
-0.515
-0.54
-0.575
-0.63
-0.665
-0.67
-0.65
-0.64
-0.635
-0.65
-0.655
-0.665
-0.675
-0.67
-0.64
-0.605
-0.55
-0.47
-0.405
-0.34
-0.275
-0.215
-0.18
-0.15
-0.14
-0.1
-0.1
-0.085
-0.1
-0.085
-0.05
-0.045
-0.07
-0.07
-0.07
-0.05
-0.015
0
-0.01
-0.03
-0.04
-0.03
0
0.005
0.02
0.015
0.025
0.03
0.045
0.055
0.055
0.075
0.085
0.115
0.145
0.145
0.135
0.14
0.14
0.17
0.205
0.21
0.225
0.225
0.225
0.24
0.27
0.28
0.28
0.29
0.295
0.295
0.32
0.33
0.345
0.325
0.31
0.31
0.305
0.295
0.255
0.23
0.175
0.185
0.15
0.12
0.09
0.035
0.025
0.02
0.005
-0.02
-0.07
-0.095
-0.125
-0.105
-0.1
-0.115
-0.135
-0.155
-0.16
-0.175
-0.175
-0.17
-0.18
-0.19
-0.195
-0.18
-0.185
-0.185
-0.2
-0.225
-0.235
-0.225
-0.21
-0.21
-0.2
-0.22
-0.2
-0.19
-0.19
-0.195
-0.2
-0.205
-0.195
-0.195
-0.16
-0.15
-0.18
-0.205
-0.22
-0.2
-0.175
-0.165
-0.165
-0.185
-0.2
-0.195
-0.185
-0.175
-0.19
-0.2
-0.2
-0.19
-0.18
-0.19
-0.21
-0.235
-0.245
-0.23
-0.225
-0.21
-0.22
-0.235
-0.24
-0.245
-0.24
-0.245
-0.25
-0.245
-0.245
-0.235
-0.19
-0.16
-0.16
-0.16
-0.15
-0.14
-0.13
-0.1
-0.095
-0.08
-0.055
-0.02
0
0.025
0.025
0.01
0.02
0.025
0.03
0.005
-0.01
-0.05
-0.09
-0.14
-0.19
-0.2
-0.225
-0.26
-0.28
-0.28
-0.295
-0.3
-0.32
-0.34
-0.345
-0.34
-0.33
-0.345
-0.36
-0.375
-0.385
-0.385
-0.375
-0.365
-0.365
-0.385
-0.385
-0.375
-0.365
-0.38
-0.39
-0.395
-0.39
-0.385
-0.34
-0.315
-0.325
-0.3
-0.245
-0.145
0.02
0.235
0.48
0.75
1
1.205
1.275
1.105
0.705
0.16
-0.31
-0.625
-0.71
-0.66
-0.605
-0.615
-0.66
-0.7
-0.74
-0.755
-0.8
-0.825
-0.83
-0.815
-0.78
-0.8
-0.815
-0.86
-0.87
-0.865
-0.845
-0.79
-0.755
-0.73
-0.69
-0.635
-0.57
-0.52
-0.455
-0.4
-0.365
-0.33
-0.3
-0.295
-0.29
-0.285
-0.29
-0.27
-0.25
-0.24
-0.26
-0.245
-0.25
-0.25
-0.225
-0.225
-0.23
-0.255
-0.25
-0.215
-0.18
-0.16
-0.17
-0.175
-0.18
-0.165
-0.145
-0.13
-0.135
-0.155
-0.125
-0.11
-0.085
-0.075
-0.1
-0.095
-0.085
-0.05
-0.035
-0.01
0.005
-0.005
0.01
0.035
0.06
0.09
0.09
0.085
0.11
0.135
0.16
0.165
0.16
0.14
0.135
0.135
0.15
0.145
0.125
0.09
0.07
0.05
0.045
0.015
-0.015
-0.055
-0.07
-0.08
-0.09
-0.11
-0.13
-0.185
-0.215
-0.245
-0.235
-0.235
-0.25
-0.275
-0.3
-0.315
-0.315
-0.325
-0.335
-0.365
-0.37
-0.365
-0.36
-0.37
-0.38
-0.41
-0.425
-0.42
-0.41
-0.405
-0.41
-0.41
-0.415
-0.42
-0.385
-0.39
-0.395
-0.41
-0.41
-0.4
-0.38
-0.39
-0.385
-0.41
-0.415
-0.4
-0.385
-0.37
-0.35
-0.365
-0.37
-0.355
-0.365
-0.345
-0.37
-0.39
-0.395
-0.38
-0.355
-0.345
-0.345
-0.36
-0.38
-0.375
-0.38
-0.38
-0.385
-0.385
-0.38
-0.39
-0.365
-0.36
-0.375
-0.38
-0.385
-0.375
-0.375
-0.355
-0.335
-0.31
-0.29
-0.28
-0.27
-0.255
-0.245
-0.245
-0.22
-0.18
-0.14
-0.12
-0.115
-0.13
-0.135
-0.145
-0.145
-0.17
-0.165
-0.175
-0.195
-0.245
-0.29
-0.325
-0.365
-0.395
-0.415
-0.39
-0.39
-0.395
-0.4
-0.42
-0.44
-0.45
-0.47
-0.465
-0.47
-0.48
-0.48
-0.46
-0.45
-0.465
-0.485
-0.495
-0.5
-0.475
-0.45
-0.44
-0.445
-0.46
-0.45
-0.45
-0.425
-0.405
-0.395
-0.37
-0.325
-0.235
-0.115
0.065
0.26
0.485
0.73
0.965
1.12
1.15
0.95
0.59
0.12
-0.305
-0.605
-0.72
-0.715
-0.66
-0.66
-0.685
-0.72
-0.76
-0.795
-0.825
-0.87
-0.85
-0.83
-0.815
-0.83
-0.845
-0.855
-0.855
-0.835
-0.85
-0.845
-0.835
-0.795
-0.735
-0.66
-0.61
-0.57
-0.515
-0.455
-0.395
-0.335
-0.31
-0.295
-0.285
-0.275
-0.245
-0.215
-0.2
-0.19
-0.215
-0.205
-0.19
-0.175
-0.15
-0.155
-0.155
-0.175
-0.14
-0.12
-0.12
-0.12
-0.115
-0.105
-0.09
-0.065
-0.04
-0.045
-0.06
-0.06
-0.035
-0.005
0.01
0.02
0.025
0.04
0.055
0.08
0.095
0.095
0.09
0.115
0.135
0.18
0.2
0.22
0.22
0.21
0.225
0.25
0.255
0.25
0.255
0.285
0.3
0.32
0.32
0.305
0.28
0.26
0.235
0.23
0.235
0.215
0.18
0.155
0.145
0.135
0.1
0.07
0.035
0.01
0.01
0.01
-0.01
-0.015
-0.065
-0.085
-0.095
-0.095
-0.1
-0.11
-0.13
-0.145
-0.15
-0.14
-0.14
-0.15
-0.165
-0.17
-0.16
-0.14
-0.135
-0.15
-0.145
-0.175
-0.16
-0.16
-0.15
-0.17
-0.17
-0.155
-0.14
-0.12
-0.115
-0.145
-0.16
-0.15
-0.13
-0.115
-0.095
-0.11
-0.115
-0.11
-0.12
-0.1
-0.095
-0.095
-0.085
-0.085
-0.07
-0.055
-0.05
-0.07
-0.085
-0.105
-0.085
-0.07
-0.075
-0.06
-0.065
-0.065
-0.075
-0.055
-0.055
-0.075
-0.085
-0.095
-0.07
-0.06
-0.045
-0.05
-0.08
-0.075
-0.06
-0.04
-0.035
-0.03
-0.015
0.015
0.03
0.06
0.08
0.075
0.07
0.075
0.105
0.165
0.185
0.195
0.195
0.2
0.21
0.215
0.21
0.2
0.17
0.155
0.15
0.125
0.085
0.03
0
-0.035
-0.04
-0.045
-0.035
-0.06
-0.08
-0.095
-0.08
-0.1
-0.105
-0.125
-0.16
-0.16
-0.15
-0.125
-0.125
-0.12
-0.15
-0.16
-0.16
-0.12
-0.125
-0.12
-0.13
-0.13
-0.11
-0.09
-0.08
-0.1
-0.105
-0.1
-0.045
0.02
0.095
0.2
0.33
0.515
0.75
0.995
1.22
1.395
1.48
1.42
1.23
0.885
0.44
0.02
-0.3
-0.47
-0.48
-0.43
-0.405
-0.405
-0.455
-0.495
-0.52
-0.535
-0.58
-0.595
-0.585
-0.585
-0.585
-0.565
-0.565
-0.57
-0.595
-0.575
-0.53
-0.48
-0.425
-0.39
-0.335
-0.295
-0.225
-0.15
-0.105
-0.085
-0.07
-0.065
-0.03
-0.005
0.02
0.025
0.025
0.02
0.025
0.035
0.05
0.055
0.055
0.055
0.08
0.09
0.095
0.095
0.075
0.055
0.09
0.105
0.13
0.145
0.14
0.145
0.155
0.17
0.175
0.18
0.185
0.195
0.225
0.24
0.265
0.255
0.255
0.255
0.285
0.31
0.335
0.355
0.355
0.365
0.385
0.415
0.425
0.42
0.42
0.43
0.44
0.455
0.46
0.44
0.41
0.38
0.37
0.37
0.36
0.34
0.305
0.275
0.235
0.215
0.18
0.145
0.11
0.09
0.07
0.075
0.04
0.01
-0.02
-0.04
-0.04
-0.03
-0.03
-0.055
-0.075
-0.09
-0.095
-0.11
-0.1
-0.105
-0.115
-0.11
-0.115
-0.1
-0.095
-0.115
-0.145
-0.155
-0.125
-0.115
-0.1
-0.095
-0.11
-0.12
-0.11
-0.115
-0.105
-0.1
-0.125
-0.12
-0.1
-0.095
-0.095
-0.115
-0.12
-0.105
-0.09
-0.075
-0.08
-0.08
-0.11
-0.115
-0.1
-0.095
-0.09
-0.085
-0.095
-0.1
-0.09
-0.085
-0.095
-0.12
-0.12
-0.115
-0.11
-0.095
-0.1
-0.105
-0.13
-0.14
-0.125
-0.11
-0.08
-0.09
-0.085
-0.08
-0.065
-0.03
-0.01
0
-0.01
0.015
0.035
0.065
0.09
0.09
0.1
0.12
0.125
0.16
0.175
0.16
0.135
0.115
0.105
0.085
0.06
0
-0.045
-0.08
-0.09
-0.09
-0.1
-0.145
-0.175
-0.19
-0.185
-0.18
-0.175
-0.19
-0.2
-0.22
-0.22
-0.22
-0.215
-0.24
-0.23
-0.24
-0.225
-0.215
-0.2
-0.23
-0.225
-0.23
-0.21
-0.18
-0.17
-0.165
-0.165
-0.14
-0.07
0.045
0.2
0.415
0.655
0.905
1.175
1.375
1.39
1.145
0.655
0.11
-0.32
-0.535
-0.54
-0.485
-0.485
-0.52
-0.57
-0.605
-0.62
-0.68
-0.675
-0.66
-0.65
-0.635
-0.665
-0.71
-0.72
-0.71
-0.67
-0.61
-0.55
-0.52
-0.485
-0.435
-0.36
-0.28
-0.21
-0.17
-0.16
-0.16
-0.145
-0.115
-0.115
-0.115
-0.13
-0.11
-0.075
-0.06
-0.055
-0.065
-0.07
-0.07
-0.055
-0.045
-0.02
-0.015
-0.03
-0.01
0
0.01
0.015
0.015
0.01
0.02
0.04
0.06
0.08
0.09
0.085
0.08
0.085
0.125
0.13
0.13
0.145
0.16
0.19
0.225
0.225
0.22
0.215
0.23
0.255
0.29
0.31
0.32
0.315
0.305
0.295
0.315
0.31
0.3
0.285
0.255
0.225
0.215
0.19
0.16
0.125
0.1
0.085
0.07
0.06
0.02
-0.005
-0.06
-0.04
-0.045
-0.06
-0.08
-0.1
-0.13
-0.14
-0.14
-0.16
-0.18
-0.19
-0.195
-0.19
-0.18
-0.175
-0.205
-0.22
-0.23
-0.235
-0.21
-0.22
-0.205
-0.215
-0.225
-0.225
-0.225
-0.205
-0.22
-0.225
-0.22
-0.19
-0.185
-0.185
-0.2
-0.235
-0.235
-0.215
-0.19
-0.18
-0.18
-0.2
-0.21
-0.215
-0.2
-0.2
-0.2
-0.21
-0.225
-0.21
-0.2
-0.2
-0.22
-0.245
-0.24
-0.235
-0.215
-0.205
-0.225
-0.235
-0.255
-0.255
-0.255
-0.235
-0.25
-0.265
-0.245
-0.235
-0.245
-0.24
-0.265
-0.265
-0.275
-0.255
-0.22
-0.19
-0.185
-0.18
-0.175
-0.16
-0.14
-0.12
-0.12
-0.105
-0.08
-0.05
-0.02
-0.01
0
-0.025
-0.02
-0.035
-0.01
-0.005
-0.035
-0.065
-0.11
-0.145
-0.185
-0.225
-0.24
-0.275
-0.275
-0.275
-0.28
-0.295
-0.34
-0.355
-0.36
-0.36
-0.33
-0.33
-0.34
-0.365
-0.385
-0.385
-0.375
-0.365
-0.37
-0.385
-0.39
-0.375
-0.355
-0.355
-0.385
-0.385
-0.39
-0.36
-0.33
-0.305
-0.27
-0.195
-0.1
0.07
0.29
0.555
0.82
1.04
1.2
1.19
0.96
0.505
-0.02
-0.45
-0.685
-0.71
-0.645
-0.58
-0.605
-0.66
-0.71
-0.755
-0.8
-0.81
-0.81
-0.82
-0.8
-0.795
-0.81
-0.835
-0.87
-0.885
-0.87
-0.805
-0.735
-0.675
-0.615
-0.58
-0.53
-0.47
-0.42
-0.365
-0.34
-0.33
-0.32
-0.295
-0.295
-0.285
-0.285
-0.31
-0.29
-0.275
-0.24
-0.25
-0.245
-0.255
-0.25
-0.245
-0.22
-0.205
-0.195
-0.2
-0.2
-0.185
-0.17
-0.17
-0.185
-0.195
-0.19
-0.185
-0.15
-0.115
-0.105
-0.115
-0.115
-0.105
-0.08
-0.05
-0.055
-0.035
-0.025
-0.015
0.025
0.02
0.035
0.035
0.045
0.075
0.11
0.115
0.1
0.075
0.065
0.075
0.08
0.065
0.025
0
-0.025
-0.04
-0.055
-0.075
-0.11
-0.145
-0.175
-0.185
-0.2
-0.21
-0.255
-0.285
-0.315
-0.32
-0.3
-0.3
-0.315
-0.355
-0.375
-0.385
-0.4
-0.38
-0.385
-0.395
-0.385
-0.385
-0.375
-0.38
-0.4
-0.415
-0.425
-0.405
-0.385
-0.38
-0.385
-0.4
-0.395
-0.415
-0.405
-0.385
-0.375
-0.39
-0.395
-0.41
-0.385
-0.365
-0.37
-0.36
-0.37
-0.35
-0.345
-0.35
-0.36
-0.38
-0.385
-0.37
-0.36
-0.35
-0.365
-0.385
-0.405
-0.405
-0.38
-0.385
-0.385
-0.4
-0.395
-0.38
-0.36
-0.335
-0.355
-0.355
-0.355
-0.315
-0.285
-0.265
-0.26
-0.25
-0.24
-0.22
-0.175
-0.13
-0.125
-0.125
-0.13
-0.115
-0.105
-0.11
-0.145
-0.18
-0.21
-0.245
-0.26
-0.3
-0.335
-0.38
-0.375
-0.38
-0.385
-0.4
-0.42
-0.435
-0.44
-0.435
-0.435
-0.44
-0.455
-0.475
-0.475
-0.45
-0.435
-0.44
-0.455
-0.455
-0.465
-0.45
-0.445
-0.44
-0.44
-0.445
-0.43
-0.41
-0.39
-0.375
-0.36
-0.32
-0.22
-0.05
0.165
0.425
0.69
0.925
1.105
1.165
1.035
0.69
0.2
-0.265
-0.585
-0.715
-0.67
-0.625
-0.625
-0.68
-0.735
-0.745
-0.775
-0.795
-0.805
-0.805
-0.805
-0.795
-0.785
-0.805
-0.825
-0.845
-0.84
-0.805
-0.75
-0.71
-0.675
-0.635
-0.585
-0.505
-0.44
-0.36
-0.315
-0.275
-0.255
-0.245
-0.225
-0.21
-0.2
-0.205
-0.19
-0.17
-0.16
-0.145
-0.15
-0.155
-0.16
-0.145
-0.125
-0.1
-0.095
-0.095
-0.1
-0.085
-0.08
-0.06
-0.05
-0.035
-0.02
0
0.005
0.035
0.025
0.02
0.025
0.08
0.12
0.15
0.145
0.15
0.155
0.18
0.21
0.24
0.255
0.26
0.26
0.28
0.305
0.315
0.3
0.29
0.285
0.305
0.3
0.275
0.215
0.18
0.165
0.15
0.15
0.14
0.095
0.07
0.035
0.02
0.01
0
-0.02
-0.04
-0.055
-0.07
-0.08
-0.1
-0.11
-0.135
-0.145
-0.12
-0.12
-0.13
-0.145
-0.165
-0.175
-0.17
-0.165
-0.14
-0.145
-0.15
-0.155
-0.17
-0.14
-0.14
-0.125
-0.15
-0.15
-0.115
-0.11
-0.1
-0.12
-0.115
-0.135
-0.12
-0.08
-0.075
-0.09
-0.095
-0.105
-0.1
-0.075
-0.085
-0.11
-0.1
-0.095
-0.08
-0.075
-0.07
-0.085
-0.12
-0.095
-0.085
-0.08
-0.07
-0.07
-0.105
-0.1
-0.095
-0.09
-0.085
-0.08
-0.075
-0.05
-0.04
-0.005
0.02
0.02
0.02
0.02
0.06
0.095
0.105
0.14
0.135
0.155
0.155
0.175
0.185
0.165
0.16
0.14
0.12
0.105
0.07
0.02
-0.04
-0.06
-0.075
-0.075
-0.09
-0.115
-0.15
-0.155
-0.155
-0.14
-0.135
-0.145
-0.15
-0.18
-0.17
-0.175
-0.18
-0.195
-0.185
-0.185
-0.18
-0.165
-0.16
-0.17
-0.18
-0.18
-0.165
-0.145
-0.125
-0.1
-0.1
-0.05
0.035
0.16
0.36
0.6
0.85
1.11
1.315
1.445
1.37
1.075
0.62
0.15
-0.21
-0.415
-0.47
-0.46
-0.43
-0.455
-0.49
-0.51
-0.535
-0.565
-0.61
-0.625
-0.61
-0.58
-0.58
-0.595
-0.625
-0.655
-0.665
-0.65
-0.62
-0.605
-0.57
-0.515
-0.465
-0.425
-0.385
-0.305
-0.245
-0.185
-0.13
-0.095
-0.085
-0.075
-0.08
-0.07
-0.055
-0.04
-0.015
-0.015
-0.015
-0.01
-0.005
0.015
0.025
0.005
0.005
0.005
0.02
0.05
0.065
0.055
0.045
0.045
0.04
0.07
0.105
0.11
0.105
0.095
0.12
0.14
0.15
0.16
0.165
0.18
0.21
0.235
0.26
0.255
0.255
0.255
0.28
0.315
0.355
0.36
0.36
0.35
0.365
0.375
0.385
0.375
0.35
0.35
0.35
0.345
0.355
0.32
0.28
0.235
0.22
0.215
0.2
0.165
0.125
0.105
0.085
0.06
0.065
0.02
-0.01
-0.02
-0.025
-0.04
-0.035
-0.06
-0.1
-0.12
-0.11
-0.11
-0.11
-0.135
-0.14
-0.15
-0.145
-0.13
-0.15
-0.155
-0.175
-0.19
-0.175
-0.16
-0.14
-0.15
-0.18
-0.195
-0.18
-0.16
-0.16
-0.16
-0.165
-0.17
-0.175
-0.165
-0.15
-0.17
-0.175
-0.175
-0.16
-0.14
-0.135
-0.155
-0.17
-0.185
-0.17
-0.155
-0.15
-0.15
-0.16
-0.175
-0.175
-0.155
-0.15
-0.175
-0.185
-0.165
-0.155
-0.135
-0.135
-0.15
-0.175
-0.195
-0.19
-0.175
-0.175
-0.17
-0.175
-0.165
-0.165
-0.145
-0.14
-0.145
-0.125
-0.11
-0.07
-0.035
-0.025
-0.035
-0.035
-0.025
0.01
0.045
0.075
0.1
0.085
0.085
0.085
0.095
0.09
0.075
0.04
0.04
0.01
-0.01
-0.06
-0.105
-0.145
-0.16
-0.17
-0.185
-0.18
-0.2
-0.215
-0.22
-0.23
-0.24
-0.235
-0.255
-0.275
-0.275
-0.255
-0.25
-0.255
-0.27
-0.295
-0.275
-0.275
-0.265
-0.27
-0.265
-0.28
-0.275
-0.255
-0.225
-0.225
-0.2
-0.18
-0.09
0.045
0.23
0.46
0.73
0.99
1.195
1.325
1.26
0.965
0.52
0.025
-0.345
-0.535
-0.59
-0.545
-0.52
-0.535
-0.57
-0.59
-0.62
-0.64
-0.675
-0.7
-0.705
-0.695
-0.685
-0.68
-0.705
-0.725
-0.73
-0.715
-0.675
-0.66
-0.62
-0.58
-0.535
-0.455
-0.375
-0.295
-0.25
-0.21
-0.205
-0.2
-0.18
-0.16
-0.15
-0.14
-0.13
-0.1
-0.09
-0.08
-0.1
-0.11
-0.13
-0.1
-0.085
-0.06
-0.065
-0.07
-0.08
-0.09
-0.075
-0.05
-0.05
-0.055
-0.045
-0.035
-0.01
0.005
0.01
-0.02
-0.01
0.02
0.04
0.055
0.075
0.075
0.08
0.095
0.115
0.12
0.115
0.115
0.13
0.155
0.19
0.195
0.205
0.185
0.185
0.2
0.225
0.23
0.23
0.225
0.22
0.22
0.215
0.205
0.165
0.13
0.11
0.095
0.085
0.085
0.055
0.02
-0.01
-0.035
-0.045
-0.065
-0.1
-0.125
-0.145
-0.165
-0.16
-0.185
-0.225
-0.26
-0.275
-0.28
-0.27
-0.285
-0.29
-0.315
-0.325
-0.345
-0.335
-0.34
-0.34
-0.355
-0.35
-0.34
-0.34
-0.345
-0.35
-0.385
-0.385
-0.36
-0.345
-0.32
-0.33
-0.355
-0.365
-0.355
-0.345
-0.345
-0.36
-0.375
-0.37
-0.355
-0.335
-0.35
-0.345
-0.355
-0.365
-0.36
-0.34
-0.33
-0.335
-0.345
-0.345
-0.345
-0.35
-0.34
-0.375
-0.38
-0.395
-0.385
-0.35
-0.34
-0.36
-0.395
-0.41
-0.4
-0.385
-0.365
-0.375
-0.38
-0.37
-0.33
-0.31
-0.295
-0.31
-0.3
-0.3
-0.285
-0.245
-0.215
-0.2
-0.185
-0.16
-0.14
-0.13
-0.135
-0.13
-0.15
-0.16
-0.175
-0.175
-0.175
-0.195
-0.245
-0.315
-0.345
-0.37
-0.365
-0.39
-0.41
-0.425
-0.435
-0.445
-0.45
-0.48
-0.5
-0.515
-0.51
-0.505
-0.5
-0.505
-0.525
-0.55
-0.53
-0.515
-0.5
-0.52
-0.545
-0.545
-0.525
-0.505
-0.53
-0.52
-0.54
-0.535
-0.53
-0.495
-0.48
-0.465
-0.46
-0.415
-0.35
-0.26
-0.1
0.075
0.3
0.57
0.82
0.99
1.06
0.945
0.635
0.215
-0.215
-0.545
-0.745
-0.81
-0.785
-0.75
-0.745
-0.77
-0.81
-0.86
-0.915
-0.95
-0.935
-0.925
-0.89
-0.9
-0.92
-0.94
-0.945
-0.955
-0.97
-0.97
-0.965
-0.93
-0.87
-0.815
-0.775
-0.735
-0.71
-0.655
-0.59
-0.515
-0.465
-0.435
-0.435
-0.455
-0.43
-0.4
-0.39
-0.385
-0.39
-0.385
-0.365
-0.355
-0.33
-0.325
-0.34
-0.345
-0.335
-0.31
-0.31
-0.305
-0.32
-0.295
-0.285
-0.265
-0.255
-0.265
-0.285
-0.275
-0.27
-0.245
-0.225
-0.22
-0.23
-0.22
-0.2
-0.18
-0.17
-0.17
-0.155
-0.15
-0.12
-0.085
-0.06
-0.055
-0.055
-0.05
-0.045
-0.02
0.01
0.03
0.03
0.035
0.04
0.045
0.045
0.015
0.015
0
-0.005
0.015
0
-0.02
-0.065
-0.1
-0.115
-0.14
-0.15
-0.175
-0.195
-0.22
-0.23
-0.24
-0.26
-0.305
-0.33
-0.34
-0.35
-0.35
-0.375
-0.39
-0.41
-0.425
-0.435
-0.44
-0.43
-0.455
-0.445
-0.455
-0.455
-0.45
-0.45
-0.46
-0.465
-0.485
-0.465
-0.455
-0.44
-0.445
-0.455
-0.47
-0.465
-0.445
-0.44
-0.45
-0.46
-0.465
-0.45
-0.43
-0.415
-0.43
-0.455
-0.46
-0.44
-0.44
-0.43
-0.43
-0.44
-0.435
-0.425
-0.415
-0.425
-0.435
-0.445
-0.445
-0.435
-0.42
-0.41
-0.425
-0.46
-0.46
-0.44
-0.435
-0.42
-0.4
-0.41
-0.385
-0.345
-0.33
-0.33
-0.325
-0.34
-0.31
-0.28
-0.245
-0.215
-0.2
-0.2
-0.185
-0.17
-0.16
-0.145
-0.165
-0.165
-0.17
-0.175
-0.175
-0.2
-0.24
-0.305
-0.35
-0.365
-0.365
-0.365
-0.38
-0.395
-0.415
-0.415
-0.42
-0.42
-0.44
-0.46
-0.47
-0.445
-0.425
-0.425
-0.45
-0.47
-0.485
-0.47
-0.455
-0.44
-0.45
-0.455
-0.45
-0.435
-0.42
-0.415
-0.42
-0.435
-0.415
-0.385
-0.345
-0.3
-0.26
-0.18
-0.04
0.18
0.445
0.705
0.945
1.13
1.185
1.12
0.87
0.465
0.015
-0.375
-0.61
-0.71
-0.68
-0.63
-0.635
-0.685
-0.735
-0.765
-0.785
-0.8
-0.83
-0.855
-0.84
-0.825
-0.8
-0.805
-0.85
-0.865
-0.885
-0.88
-0.83
-0.77
-0.73
-0.7
-0.67
-0.615
-0.53
-0.465
-0.42
-0.38
-0.34
-0.295
-0.265
-0.245
-0.25
-0.255
-0.26
-0.23
-0.215
-0.205
-0.185
-0.195
-0.185
-0.175
-0.175
-0.17
-0.16
-0.17
-0.175
-0.15
-0.115
-0.105
-0.1
-0.12
-0.11
-0.105
-0.08
-0.075
-0.055
-0.065
-0.045
-0.025
0
0
-0.005
0
-0.01
0.03
0.06
0.08
0.095
0.1
0.1
0.12
0.145
0.16
0.16
0.165
0.165
0.175
0.19
0.205
0.215
0.21
0.2
0.19
0.2
0.195
0.18
0.16
0.165
0.15
0.135
0.12
0.085
0.05
0.015
0.015
0.01
0.01
-0.025
-0.04
-0.06
-0.09
-0.105
-0.12
-0.145
-0.155
-0.175
-0.15
-0.155
-0.155
-0.185
-0.215
-0.22
-0.225
-0.22
-0.21
-0.22
-0.255
-0.255
-0.235
-0.235
-0.24
-0.255
-0.275
-0.26
-0.245
-0.22
-0.205
-0.22
-0.245
-0.255
-0.24
-0.22
-0.21
-0.215
-0.23
-0.225
-0.215
-0.215
-0.205
-0.22
-0.24
-0.235
-0.225
-0.21
-0.195
-0.2
-0.21
-0.23
-0.215
-0.215
-0.21
-0.215
-0.225
-0.23
-0.215
-0.2
-0.205
-0.215
-0.235
-0.24
-0.235
-0.205
-0.205
-0.195
-0.21
-0.225
-0.21
-0.21
-0.185
-0.185
-0.18
-0.155
-0.13
-0.095
-0.07
-0.065
-0.07
-0.065
-0.045
-0.01
0.025
0.035
0.045
0.055
0.045
0.075
0.085
0.07
0.04
0.01
0.01
0.005
-0.01
-0.075
-0.125
-0.17
-0.18
-0.19
-0.195
-0.215
-0.23
-0.25
-0.25
-0.265
-0.265
-0.285
-0.305
-0.305
-0.31
-0.295
-0.285
-0.285
-0.305
-0.32
-0.33
-0.31
-0.3
-0.3
-0.31
-0.32
-0.29
-0.28
-0.27
-0.27
-0.28
-0.255
-0.18
-0.07
0.07
0.235
0.45
0.69
0.96
1.185
1.325
1.305
1.06
0.625
0.13
-0.265
-0.54
-0.64
-0.635
-0.59
-0.57
-0.575
-0.595
-0.645
-0.7
-0.74
-0.74
-0.73
-0.7
-0.69
-0.705
-0.725
-0.725
-0.72
-0.71
-0.665
-0.65
-0.61
-0.57
-0.495
-0.42
-0.37
-0.33
-0.27
-0.225
-0.18
-0.18
-0.16
-0.16
-0.155
-0.125
-0.12
-0.11
-0.105
-0.12
-0.115
-0.095
-0.075
-0.06
-0.06
-0.07
-0.085
-0.07
-0.045
-0.055
-0.055
-0.055
-0.055
-0.02
0
0.005
0.01
-0.01
-0.005
0.01
0.05
0.065
0.075
0.07
0.08
0.105
0.135
0.15
0.155
0.165
0.18
0.21
0.22
0.245
0.255
0.245
0.25
0.255
0.295
0.3
0.3
0.295
0.29
0.295
0.295
0.285
0.25
0.22
0.19
0.195
0.195
0.185
0.14
0.1
0.045
0.04
0.03
0.015
-0.005
-0.04
-0.055
-0.07
-0.07
-0.09
-0.125
-0.165
-0.17
-0.17
-0.17
-0.175
-0.19
-0.22
-0.225
-0.24
-0.235
-0.235
-0.245
-0.26
-0.255
-0.255
-0.23
-0.245
-0.25
-0.265
-0.265
-0.25
-0.22
-0.22
-0.24
-0.255
-0.25
-0.26
-0.235
-0.225
-0.22
-0.225
-0.23
-0.21
-0.205
-0.2
-0.235
-0.23
-0.22
-0.215
-0.18
-0.17
-0.175
-0.205
-0.22
-0.205
-0.205
-0.18
-0.19
-0.205
-0.2
-0.205
-0.195
-0.19
-0.21
-0.23
-0.235
-0.21
-0.205
-0.195
-0.195
-0.2
-0.205
-0.2
-0.17
-0.135
-0.13
-0.115
-0.11
-0.085
-0.055
-0.03
-0.04
-0.05
-0.02
0.015
0.07
0.09
0.08
0.055
0.05
0.045
0.04
0.035
0
-0.04
-0.07
-0.105
-0.12
-0.14
-0.18
-0.22
-0.23
-0.235
-0.23
-0.23
-0.26
-0.26
-0.27
-0.265
-0.27
-0.28
-0.3
-0.325
-0.325
-0.315
-0.295
-0.29
-0.29
-0.31
-0.32
-0.325
-0.31
-0.295
-0.28
-0.285
-0.295
-0.26
-0.23
-0.22
-0.205
-0.16
-0.085
0.07
0.275
0.51
0.745
0.99
1.19
1.3
1.24
0.955
0.48
-0.015
-0.395
-0.585
-0.605
-0.54
-0.53
-0.545
-0.6
-0.61
-0.63
-0.66
-0.705
-0.715
-0.705
-0.69
-0.69
-0.7
-0.715
-0.74
-0.735
-0.72
-0.68
-0.635
-0.6
-0.565
-0.515
-0.445
-0.345
-0.29
-0.24
-0.215
-0.21
-0.2
-0.17
-0.165
-0.145
-0.155
-0.135
-0.12
-0.105
-0.095
-0.11
-0.13
-0.12
-0.11
-0.07
-0.06
-0.065
-0.075
-0.08
-0.075
-0.06
-0.045
-0.05
-0.045
-0.03
-0.005
0.015
0.02
0.015
0
0
0.015
0.045
0.065
0.07
0.06
0.065
0.09
0.115
0.13
0.13
0.155
0.16
0.18
0.21
0.22
0.21
0.2
0.2
0.215
0.23
0.24
0.235
0.215
0.185
0.18
0.165
0.145
0.115
0.08
0.065
0.035
0.035
0.01
-0.045
-0.075
-0.1
-0.1
-0.1
-0.115
-0.14
-0.19
-0.205
-0.22
-0.22
-0.24
-0.255
-0.275
-0.28
-0.28
-0.275
-0.29
-0.32
-0.34
-0.34
-0.335
-0.31
-0.315
-0.32
-0.345
-0.355
-0.345
-0.32
-0.325
-0.315
-0.33
-0.335
-0.32
-0.31
-0.32
-0.33
-0.34
-0.335
-0.31
-0.3
-0.325
-0.32
-0.32
-0.32
-0.33
-0.305
-0.31
-0.315
-0.32
-0.32
-0.305
-0.305
-0.315
-0.335
-0.335
-0.33
-0.335
-0.305
-0.31
-0.33
-0.335
-0.35
-0.355
-0.36
-0.355
-0.365
-0.345
-0.345
-0.325
-0.315
-0.3
-0.285
-0.295
-0.265
-0.235
-0.21
-0.185
-0.195
-0.19
-0.185
-0.145
-0.105
-0.085
-0.075
-0.09
-0.1
-0.09
-0.09
-0.11
-0.145
-0.195
-0.24
-0.265
-0.29
-0.31
-0.335
-0.375
-0.405
-0.425
-0.4
-0.39
-0.4
-0.425
-0.47
-0.465
-0.455
-0.465
-0.47
-0.475
-0.48
-0.455
-0.45
-0.425
-0.455
-0.475
-0.485
-0.47
-0.455
-0.445
-0.445
-0.445
-0.435
-0.405
-0.365
-0.3
-0.215
-0.075
0.145
0.44
0.725
0.965
1.105
1.055
0.775
0.285
-0.245
-0.65
-0.79
-0.77
-0.71
-0.695
-0.73
-0.775
-0.825
-0.845
-0.895
-0.885
-0.86
-0.855
-0.88
-0.905
-0.915
-0.93
-0.925
-0.885
-0.84
-0.795
-0.78
-0.715
-0.665
-0.59
-0.525
-0.475
-0.43
-0.405
-0.385
-0.38
-0.375
-0.385
-0.365
-0.335
-0.33
-0.31
-0.315
-0.32
-0.335
-0.33
-0.33
-0.3
-0.305
-0.305
-0.3
-0.29
-0.28
-0.26
-0.255
-0.265
-0.255
-0.25
-0.225
-0.2
-0.205
-0.225
-0.23
-0.22
-0.175
-0.155
-0.16
-0.145
-0.165
-0.135
-0.12
-0.12
-0.12
-0.125
-0.115
-0.075
-0.065
-0.03
-0.045
-0.06
-0.055
-0.035
-0.01
-0.01
-0.03
-0.055
-0.085
-0.11
-0.12
-0.135
-0.17
-0.19
-0.22
-0.23
-0.225
-0.265
-0.305
-0.35
-0.375
-0.375
-0.38
-0.39
-0.415
-0.455
-0.465
-0.47
-0.47
-0.48
-0.495
-0.515
-0.525
-0.525
-0.505
-0.51
-0.525
-0.56
-0.55
-0.535
-0.52
-0.505
-0.51
-0.535
-0.54
-0.52
-0.515
-0.5
-0.51
-0.51
-0.505
-0.5
-0.505
-0.5
-0.505
-0.51
-0.505
-0.5
-0.47
-0.46
-0.47
-0.495
-0.51
-0.485
-0.485
-0.475
-0.46
-0.46
-0.47
-0.45
-0.445
-0.45
-0.45
-0.455
-0.46
-0.44
-0.425
-0.425
-0.425
-0.455
-0.465
-0.46
-0.43
-0.42
-0.4
-0.395
-0.395
-0.375
-0.34
-0.315
-0.325
-0.315
-0.3
-0.27
-0.225
-0.195
-0.185
-0.19
-0.175
-0.18
-0.155
-0.15
-0.15
-0.175
-0.2
-0.24
-0.265
-0.3
-0.33
-0.37
-0.39
-0.39
-0.385
-0.4
-0.43
-0.46
-0.465
-0.465
-0.45
-0.445
-0.45
-0.49
-0.49
-0.485
-0.485
-0.48
-0.48
-0.49
-0.48
-0.48
-0.455
-0.47
-0.465
-0.48
-0.465
-0.435
-0.415
-0.39
-0.37
-0.335
-0.28
-0.145
0.045
0.285
0.565
0.845
1.095
1.23
1.165
0.84
0.32
-0.225
-0.62
-0.8
-0.785
-0.695
-0.69
-0.765
-0.8
-0.835
-0.845
-0.86
-0.87
-0.86
-0.85
-0.825
-0.825
-0.845
-0.865
-0.895
-0.875
-0.805
-0.745
-0.69
-0.645
-0.605
-0.565
-0.485
-0.39
-0.315
-0.29
-0.275
-0.24
-0.23
-0.205
-0.195
-0.195
-0.2
-0.185
-0.165
-0.14
-0.135
-0.135
-0.145
-0.155
-0.15
-0.12
-0.11
-0.1
-0.1
-0.085
-0.08
-0.075
-0.055
-0.065
-0.065
-0.05
-0.01
0.015
0.03
0.03
0.025
0.035
0.04
0.075
0.105
0.12
0.135
0.145
0.17
0.2
0.215
0.225
0.215
0.24
0.26
0.295
0.31
0.315
0.32
0.295
0.295
0.305
0.305
0.295
0.265
0.255
0.235
0.22
0.195
0.16
0.12
0.075
0.06
0.05
0.04
0.01
-0.025
-0.095
-0.115
-0.145
-0.155
-0.155
-0.155
-0.145
-0.15
-0.13
-0.14
-0.155
-0.165
-0.18
-0.18
-0.16
-0.16
-0.17
-0.2
-0.195
-0.19
-0.17
-0.155
-0.14
-0.15
-0.145
-0.15
-0.135
-0.125
-0.14
-0.14
-0.14
-0.13
-0.105
-0.085
-0.09
-0.105
-0.105
-0.1
-0.09
-0.07
-0.07
-0.075
-0.08
-0.065
-0.07
-0.06
-0.06
-0.08
-0.08
-0.075
-0.055
-0.05
-0.065
-0.09
-0.11
-0.115
-0.09
-0.085
-0.08
-0.105
-0.13
-0.12
-0.12
-0.11
-0.135
-0.16
-0.16
-0.135
-0.13
-0.125
-0.135
-0.145
-0.13
-0.105
-0.075
-0.055
-0.055
-0.055
-0.04
-0.025
0
0.02
0.03
0.025
0.06
0.065
0.09
0.095
0.075
0.04
0.03
0.03
0.02
-0.02
-0.045
-0.095
-0.13
-0.145
-0.155
-0.17
-0.185
-0.205
-0.22
-0.2
-0.195
-0.205
-0.22
-0.265
-0.27
-0.26
-0.25
-0.235
-0.245
-0.245
-0.26
-0.26
-0.245
-0.26
-0.275
-0.27
-0.27
-0.25
-0.22
-0.215
-0.21
-0.215
-0.19
-0.13
-0.03
0.105
0.28
0.495
0.75
1.015
1.255
1.38
1.365
1.14
0.73
0.255
-0.15
-0.415
-0.53
-0.52
-0.485
-0.48
-0.49
-0.51
-0.555
-0.605
-0.645
-0.65
-0.63
-0.61
-0.625
-0.655
-0.665
-0.65
-0.645
-0.605
-0.58
-0.555
-0.515
-0.455
-0.39
-0.325
-0.26
-0.205
-0.175
-0.12
-0.11
-0.09
-0.085
-0.075
-0.075
-0.05
-0.02
-0.01
-0.02
-0.02
-0.015
-0.005
0.01
0.015
0.025
0.02
0.01
0.01
0.04
0.035
0.035
0.025
0.035
0.03
0.07
0.085
0.08
0.09
0.09
0.095
0.115
0.145
0.145
0.15
0.175
0.19
0.21
0.23
0.23
0.225
0.255
0.28
0.31
0.33
0.335
0.325
0.325
0.34
0.35
0.365
0.37
0.36
0.34
0.335
0.33
0.32
0.29
0.26
0.235
0.21
0.19
0.195
0.17
0.13
0.095
0.07
0.06
0.05
0.035
0.01
-0.01
-0.025
-0.035
-0.05
-0.065
-0.09
-0.1
-0.11
-0.115
-0.105
-0.115
-0.135
-0.165
-0.17
-0.165
-0.15
-0.145
-0.15
-0.155
-0.14
-0.15
-0.13
-0.15
-0.17
-0.165
-0.165
-0.14
-0.135
-0.135
-0.15
-0.16
-0.165
-0.145
-0.13
-0.13
-0.14
-0.14
-0.125
-0.115
-0.12
-0.11
-0.13
-0.13
-0.125
-0.105
-0.095
-0.09
-0.11
-0.13
-0.145
-0.12
-0.11
-0.115
-0.12
-0.135
-0.13
-0.12
-0.11
-0.135
-0.135
-0.14
-0.13
-0.1
-0.11
-0.125
-0.145
-0.165
-0.16
-0.14
-0.13
-0.125
-0.13
-0.12
-0.115
-0.095
-0.08
-0.075
-0.055
-0.035
-0.02
0.005
0.03
0.055
0.025
0.035
0.065
0.095
0.125
0.125
0.115
0.12
0.12
0.135
0.125
0.095
0.055
0.025
-0.01
-0.03
-0.055
-0.095
-0.15
-0.16
-0.18
-0.175
-0.18
-0.195
-0.22
-0.225
-0.21
-0.215
-0.215
-0.23
-0.245
-0.26
-0.235
-0.215
-0.23
-0.25
-0.25
-0.255
-0.25
-0.235
-0.215
-0.21
-0.2
-0.205
-0.2
-0.16
-0.13
-0.075
0.02
0.185
0.425
0.705
0.965
1.2
1.335
1.325
1.055
0.635
0.135
-0.28
-0.525
-0.565
-0.52
-0.475
-0.495
-0.54
-0.595
-0.625
-0.645
-0.68
-0.66
-0.665
-0.665
-0.695
-0.705
-0.725
-0.71
-0.7
-0.675
-0.655
-0.615
-0.545
-0.485
-0.42
-0.355
-0.3
-0.245
-0.2
-0.18
-0.18
-0.185
-0.19
-0.165
-0.13
-0.11
-0.105
-0.125
-0.13
-0.14
-0.12
-0.105
-0.105
-0.095
-0.105
-0.11
-0.08
-0.08
-0.085
-0.085
-0.08
-0.065
-0.04
-0.015
-0.02
-0.02
-0.035
-0.025
-0.01
0
0.02
0.025
0.025
0.04
0.055
0.085
0.09
0.085
0.085
0.105
0.13
0.17
0.16
0.165
0.155
0.165
0.2
0.22
0.215
0.205
0.19
0.185
0.225
0.2
0.16
0.13
0.07
0.06
0.075
0.07
0.035
-0.005
-0.045
-0.06
-0.055
-0.07
-0.09
-0.12
-0.145
-0.155
-0.16
-0.155
-0.185
-0.225
-0.25
-0.26
-0.245
-0.255
-0.25
-0.265
-0.29
-0.28
-0.295
-0.3
-0.305
-0.305
-0.32
-0.315
-0.29
-0.28
-0.275
-0.3
-0.32
-0.335
-0.3
-0.29
-0.285
-0.29
-0.29
-0.295
-0.285
-0.28
-0.28
-0.3
-0.29
-0.29
-0.27
-0.265
-0.26
-0.27
-0.3
-0.285
-0.285
-0.275
-0.29
-0.29
-0.29
-0.29
-0.28
-0.29
-0.295
-0.315
-0.315
-0.32
-0.31
-0.285
-0.28
-0.3
-0.31
-0.32
-0.32
-0.3
-0.285
-0.3
-0.3
-0.29
-0.28
-0.27
-0.26
-0.255
-0.245
-0.22
-0.21
-0.195
-0.195
-0.185
-0.17
-0.15
-0.13
-0.1
-0.075
-0.06
-0.075
-0.06
-0.05
-0.06
-0.07
-0.1
-0.135
-0.155
-0.185
-0.205
-0.24
-0.28
-0.31
-0.325
-0.34
-0.355
-0.365
-0.38
-0.39
-0.4
-0.385
-0.39
-0.4
-0.415
-0.43
-0.43
-0.43
-0.42
-0.41
-0.415
-0.415
-0.415
-0.4
-0.395
-0.405
-0.41
-0.415
-0.41
-0.38
-0.36
-0.36
-0.36
-0.335
-0.265
-0.16
0.005
0.215
0.47
0.735
0.975
1.14
1.19
0.995
0.615
0.12
-0.315
-0.59
-0.69
-0.68
-0.645
-0.645
-0.665
-0.695
-0.725
-0.77
-0.805
-0.84
-0.81
-0.795
-0.79
-0.81
-0.845
-0.865
-0.86
-0.835
-0.81
-0.77
-0.74
-0.715
-0.67
-0.595
-0.53
-0.47
-0.41
-0.375
-0.34
-0.32
-0.305
-0.3
-0.285
-0.295
-0.28
-0.235
-0.225
-0.225
-0.24
-0.235
-0.24
-0.22
-0.215
-0.215
-0.21
-0.21
-0.195
-0.175
-0.165
-0.165
-0.175
-0.18
-0.155
-0.125
-0.11
-0.08
-0.09
-0.09
-0.095
-0.09
-0.08
-0.065
-0.055
-0.04
-0.025
0.005
0.025
0.03
0.035
0.035
0.065
0.095
0.11
0.13
0.14
0.145
0.155
0.17
0.18
0.17
0.165
0.165
0.18
0.18
0.17
0.15
0.1
0.07
0.045
0.035
0.035
0.005
-0.035
-0.07
-0.095
-0.14
-0.155
-0.175
-0.19
-0.215
-0.215
-0.24
-0.215
-0.235
-0.26
-0.28
-0.295
-0.295
-0.28
-0.285
-0.305
-0.325
-0.315
-0.315
-0.31
-0.315
-0.31
-0.31
-0.315
-0.3
-0.28
-0.29
-0.3
-0.33
-0.305
-0.28
-0.27
-0.25
-0.25
-0.255
-0.255
-0.245
-0.235
-0.23
-0.25
-0.275
-0.255
-0.235
-0.22
-0.235
-0.24
-0.265
-0.255
-0.245
-0.24
-0.22
-0.235
-0.24
-0.235
-0.225
-0.225
-0.235
-0.25
-0.265
-0.24
-0.225
-0.21
-0.21
-0.23
-0.245
-0.235
-0.215
-0.2
-0.19
-0.195
-0.195
-0.185
-0.185
-0.17
-0.16
-0.15
-0.125
-0.105
-0.085
-0.06
-0.065
-0.05
-0.065
-0.045
-0.015
0.015
0.055
0.05
0.06
0.07
0.09
0.09
0.07
0.05
0.03
0
0.005
-0.005
-0.05
-0.12
-0.15
-0.16
-0.18
-0.18
-0.2
-0.22
-0.24
-0.23
-0.22
-0.22
-0.235
-0.25
-0.28
-0.25
-0.22
-0.21
-0.22
-0.225
-0.25
-0.25
-0.235
-0.215
-0.225
-0.24
-0.23
-0.225
-0.215
-0.205
-0.2
-0.21
-0.21
-0.185
-0.135
-0.07
0.025
0.14
0.31
0.535
0.79
1.05
1.26
1.405
1.4
1.19
0.82
0.385
-0.06
-0.38
-0.525
-0.51
-0.455
-0.425
-0.455
-0.49
-0.53
-0.55
-0.575
-0.6
-0.595
-0.595
-0.595
-0.58
-0.58
-0.595
-0.625
-0.63
-0.62
-0.57
-0.525
-0.485
-0.445
-0.42
-0.365
-0.27
-0.185
-0.13
-0.105
-0.105
-0.095
-0.075
-0.06
-0.05
-0.05
-0.035
-0.015
0
0.02
0.02
0.01
0
0.01
0.025
0.04
0.065
0.045
0.04
0.055
0.045
0.065
0.075
0.075
0.07
0.05
0.08
0.11
0.14
0.135
0.11
0.095
0.095
0.13
0.165
0.17
0.18
0.185
0.205
0.23
0.245
0.25
0.255
0.265
0.29
0.335
0.345
0.35
0.36
0.345
0.355
0.385
0.4
0.395
0.4
0.375
0.395
0.39
0.38
0.35
0.32
0.28
0.275
0.27
0.265
0.24
0.21
0.185
0.16
0.13
0.115
0.1
0.07
0.055
0.045
0.04
0.04
0.01
-0.035
-0.055
-0.07
-0.065
-0.08
-0.09
-0.1
-0.11
-0.105
-0.095
-0.105
-0.12
-0.145
-0.15
-0.16
-0.13
-0.125
-0.13
-0.15
-0.175
-0.155
-0.16
-0.135
-0.145
-0.145
-0.145
-0.13
-0.115
-0.115
-0.12
-0.13
-0.145
-0.155
-0.13
-0.115
-0.105
-0.105
-0.12
-0.12
-0.115
-0.105
-0.11
-0.135
-0.125
-0.105
-0.09
-0.075
-0.085
-0.11
-0.135
-0.13
-0.11
-0.105
-0.125
-0.135
-0.12
-0.125
-0.125
-0.13
-0.15
-0.16
-0.165
-0.14
-0.13
-0.125
-0.13
-0.145
-0.155
-0.16
-0.16
-0.16
-0.155
-0.16
-0.155
-0.155
-0.135
-0.13
-0.125
-0.13
-0.105
-0.08
-0.045
-0.02
-0.01
-0.015
-0.005
0.005
0.05
0.07
0.09
0.08
0.09
0.11
0.125
0.12
0.095
0.055
0.065
0.04
0.035
0
-0.05
-0.1
-0.13
-0.145
-0.15
-0.175
-0.195
-0.21
-0.215
-0.215
-0.21
-0.22
-0.245
-0.245
-0.26
-0.26
-0.25
-0.235
-0.23
-0.24
-0.25
-0.25
-0.25
-0.255
-0.24
-0.25
-0.245
-0.23
-0.205
-0.2
-0.195
-0.195
-0.185
-0.125
-0.03
0.11
0.295
0.515
0.765
1.035
1.27
1.385
1.335
1.045
0.585
0.075
-0.33
-0.525
-0.56
-0.495
-0.47
-0.5
-0.54
-0.565
-0.595
-0.64
-0.67
-0.665
-0.65
-0.64
-0.64
-0.66
-0.665
-0.685
-0.67
-0.655
-0.64
-0.625
-0.58
-0.53
-0.46
-0.405
-0.33
-0.28
-0.235
-0.185
-0.155
-0.135
-0.135
-0.135
-0.105
-0.075
-0.07
-0.055
-0.065
-0.075
-0.08
-0.07
-0.06
-0.05
-0.045
-0.06
-0.045
-0.035
-0.015
-0.01
-0.025
-0.025
-0.03
-0.015
0.025
0.045
0.025
0.02
0.035
0.055
0.07
0.07
0.1
0.09
0.1
0.125
0.155
0.17
0.18
0.17
0.165
0.19
0.22
0.24
0.245
0.245
0.255
0.26
0.28
0.29
0.275
0.26
0.285
0.29
0.31
0.315
0.28
0.245
0.235
0.225
0.21
0.205
0.185
0.18
0.17
0.145
0.135
0.105
0.07
0.03
-0.005
-0.015
-0.015
-0.02
-0.04
-0.075
-0.105
-0.135
-0.135
-0.14
-0.15
-0.175
-0.185
-0.185
-0.18
-0.19
-0.215
-0.25
-0.26
-0.26
-0.245
-0.24
-0.235
-0.25
-0.255
-0.26
-0.26
-0.26
-0.255
-0.26
-0.265
-0.26
-0.24
-0.235
-0.24
-0.23
-0.25
-0.25
-0.24
-0.24
-0.23
-0.225
-0.225
-0.23
-0.21
-0.21
-0.23
-0.245
-0.26
-0.25
-0.245
-0.215
-0.22
-0.235
-0.255
-0.235
-0.23
-0.245
-0.265
-0.28
-0.3
-0.3
-0.275
-0.265
-0.26
-0.29
-0.31
-0.3
-0.3
-0.295
-0.285
-0.305
-0.31
-0.305
-0.29
-0.29
-0.305
-0.34
-0.345
-0.34
-0.32
-0.3
-0.315
-0.305
-0.305
-0.305
-0.3
-0.3
-0.3
-0.305
-0.295
-0.27
-0.23
-0.2
-0.185
-0.19
-0.205
-0.2
-0.185
-0.16
-0.12
-0.11
-0.07
-0.065
-0.025
-0.02
-0.03
-0.045
-0.07
-0.075
-0.075
-0.09
-0.105
-0.14
-0.195
-0.23
-0.25
-0.275
-0.31
-0.335
-0.35
-0.34
-0.335
-0.34
-0.35
-0.37
-0.375
-0.395
-0.385
-0.39
-0.405
-0.42
-0.41
-0.405
-0.395
-0.4
-0.41
-0.46
-0.445
-0.425
-0.405
-0.4
-0.405
-0.395
-0.405
-0.39
-0.385
-0.345
-0.345
-0.31
-0.25
-0.13
0.025
0.24
0.445
0.7
0.935
1.14
1.225
1.135
0.835
0.395
-0.07
-0.42
-0.645
-0.7
-0.645
-0.64
-0.64
-0.675
-0.68
-0.715
-0.755
-0.81
-0.84
-0.825
-0.79
-0.775
-0.8
-0.83
-0.855
-0.87
-0.855
-0.83
-0.805
-0.76
-0.725
-0.675
-0.61
-0.55
-0.495
-0.435
-0.41
-0.36
-0.33
-0.315
-0.31
-0.295
-0.295
-0.285
-0.275
-0.26
-0.26
-0.28
-0.275
-0.26
-0.235
-0.22
-0.215
-0.24
-0.255
-0.245
-0.215
-0.21
-0.215
-0.235
-0.215
-0.19
-0.175
-0.165
-0.185
-0.175
-0.175
-0.145
-0.115
-0.1
-0.095
-0.105
-0.1
-0.1
-0.07
-0.045
-0.055
-0.045
-0.03
-0.01
0.02
0.03
0.005
0.02
0.01
0.04
0.05
0.08
0.08
0.085
0.065
0.055
0.07
0.075
0.045
0.02
-0.005
-0.005
-0.015
-0.03
-0.05
-0.1
-0.135
-0.155
-0.16
-0.175
-0.19
-0.22
-0.25
-0.255
-0.27
-0.275
-0.305
-0.325
-0.36
-0.36
-0.355
-0.35
-0.375
-0.395
-0.415
-0.405
-0.4
-0.39
-0.42
-0.41
-0.415
-0.405
-0.395
-0.395
-0.405
-0.425
-0.43
-0.41
-0.42
-0.385
-0.385
-0.4
-0.405
-0.395
-0.385
-0.375
-0.37
-0.375
-0.375
-0.365
-0.345
-0.345
-0.36
-0.39
-0.405
-0.385
-0.365
-0.355
-0.355
-0.355
-0.365
-0.365
-0.36
-0.355
-0.35
-0.355
-0.355
-0.345
-0.34
-0.335
-0.36
-0.38
-0.38
-0.37
-0.34
-0.33
-0.335
-0.34
-0.35
-0.355
-0.335
-0.31
-0.295
-0.285
-0.275
-0.24
-0.205
-0.195
-0.205
-0.215
-0.185
-0.15
-0.115
-0.05
-0.05
-0.055
-0.06
-0.06
-0.055
-0.06
-0.065
-0.085
-0.095
-0.13
-0.135
-0.175
-0.235
-0.295
-0.305
-0.325
-0.31
-0.27
-0.285
-0.3
-0.335
-0.345
-0.35
-0.34
-0.345
-0.36
-0.37
-0.35
-0.35
-0.34
-0.355
-0.37
-0.375
-0.36
-0.33
-0.31
-0.305
-0.32
-0.33
-0.315
-0.3
-0.29
-0.275
-0.245
-0.195
-0.08
0.095
0.29
0.54
0.805
1.055
1.265
1.37
1.245
0.885
0.35
-0.14
-0.48
-0.605
-0.565
-0.5
-0.49
-0.535
-0.57
-0.6
-0.64
-0.685
-0.685
-0.685
-0.66
-0.64
-0.66
-0.685
-0.705
-0.715
-0.68
-0.62
-0.555
-0.515
-0.465
-0.415
-0.355
-0.275
-0.215
-0.19
-0.165
-0.17
-0.135
-0.09
-0.075
-0.05
-0.07
-0.065
-0.045
-0.035
-0.025
-0.035
-0.03
-0.025
-0.02
-0.01
0
-0.005
0
0.01
0.035
0.045
0.075
0.055
0.05
0.05
0.04
0.075
0.11
0.11
0.12
0.125
0.15
0.155
0.18
0.185
0.195
0.205
0.23
0.27
0.28
0.3
0.3
0.295
0.315
0.345
0.355
0.375
0.365
0.375
0.375
0.37
0.385
0.36
0.35
0.325
0.32
0.325
0.32
0.285
0.235
0.19
0.17
0.17
0.155
0.125
0.09
0.075
0.055
0.05
0.045
0.01
-0.015
-0.035
-0.045
-0.03
-0.03
-0.055
-0.09
-0.09
-0.085
-0.07
-0.065
-0.065
-0.085
-0.09
-0.1
-0.09
-0.09
-0.105
-0.11
-0.095
-0.09
-0.065
-0.065
-0.08
-0.095
-0.105
-0.095
-0.07
-0.045
-0.05
-0.065
-0.075
-0.06
-0.05
-0.045
-0.045
-0.065
-0.065
-0.05
-0.04
-0.035
-0.045
-0.065
-0.085
-0.065
-0.03
-0.02
-0.025
-0.055
-0.05
-0.045
-0.04
-0.025
-0.035
-0.055
-0.06
-0.04
-0.03
-0.035
-0.05
-0.075
-0.07
-0.065
-0.04
-0.03
-0.035
-0.04
-0.03
-0.005
0.03
0.045
0.05
0.05
0.065
0.1
0.13
0.15
0.15
0.17
0.165
0.19
0.21
0.225
0.215
0.18
0.175
0.14
0.125
0.1
0.055
0.025
-0.01
-0.02
-0.035
-0.065
-0.09
-0.105
-0.12
-0.115
-0.105
-0.1
-0.115
-0.135
-0.16
-0.175
-0.15
-0.14
-0.15
-0.17
-0.17
-0.16
-0.15
-0.145
-0.165
-0.17
-0.175
-0.16
-0.13
-0.105
-0.095
-0.1
-0.09
-0.015
0.095
0.245
0.445
0.675
0.905
1.165
1.38
1.46
1.34
0.99
0.52
0.03
-0.305
-0.45
-0.45
-0.42
-0.41
-0.44
-0.46
-0.495
-0.535
-0.57
-0.585
-0.585
-0.555
-0.56
-0.58
-0.61
-0.63
-0.615
-0.605
-0.55
-0.51
-0.485
-0.46
-0.4
-0.32
-0.25
-0.18
-0.135
-0.095
-0.065
-0.04
-0.01
-0.015
-0.035
-0.02
0.005
0.03
0.055
0.035
0.035
0.03
0.04
0.04
0.065
0.065
0.055
0.06
0.075
0.095
0.1
0.09
0.08
0.065
0.105
0.12
0.135
0.125
0.105
0.13
0.13
0.16
0.17
0.18
0.2
0.2
0.225
0.265
0.27
0.265
0.255
0.26
0.295
0.325
0.345
0.36
0.35
0.35
0.355
0.37
0.39
0.38
0.365
0.35
0.335
0.355
0.35
0.315
0.255
0.24
0.22
0.215
0.225
0.185
0.14
0.095
0.08
0.075
0.055
0.04
0.01
-0.005
-0.02
-0.02
-0.03
-0.065
-0.1
-0.12
-0.11
-0.11
-0.09
-0.095
-0.115
-0.14
-0.135
-0.14
-0.13
-0.145
-0.145
-0.145
-0.135
-0.125
-0.13
-0.145
-0.155
-0.17
-0.16
-0.14
-0.12
-0.13
-0.135
-0.155
-0.145
-0.135
-0.125
-0.15
-0.15
-0.145
-0.135
-0.12
-0.11
-0.14
-0.16
-0.165
-0.14
-0.125
-0.11
-0.135
-0.15
-0.155
-0.155
-0.15
-0.145
-0.17
-0.175
-0.16
-0.155
-0.135
-0.14
-0.155
-0.17
-0.195
-0.2
-0.185
-0.17
-0.17
-0.17
-0.195
-0.185
-0.19
-0.175
-0.185
-0.195
-0.18
-0.165
-0.155
-0.145
-0.14
-0.135
-0.125
-0.07
-0.04
-0.025
-0.02
-0.035
-0.025
0.005
0.025
0.065
0.105
0.105
0.11
0.115
0.125
0.11
0.06
0.045
0.02
0
-0.02
-0.07
-0.11
-0.165
-0.2
-0.205
-0.205
-0.21
-0.215
-0.255
-0.265
-0.27
-0.28
-0.275
-0.295
-0.31
-0.31
-0.3
-0.28
-0.275
-0.295
-0.325
-0.325
-0.325
-0.29
-0.28
-0.27
-0.265
-0.275
-0.26
-0.235
-0.215
-0.155
-0.095
0.01
0.19
0.465
0.76
1.03
1.225
1.3
1.15
0.76
0.235
-0.24
-0.58
-0.665
-0.59
-0.52
-0.52
-0.57
-0.625
-0.67
-0.695
-0.705
-0.71
-0.715
-0.725
-0.73
-0.735
-0.735
-0.735
-0.755
-0.735
-0.71
-0.655
-0.605
-0.55
-0.48
-0.415
-0.345
-0.29
-0.27
-0.255
-0.255
-0.26
-0.24
-0.21
-0.19
-0.18
-0.18
-0.205
-0.185
-0.175
-0.175
-0.145
-0.14
-0.15
-0.15
-0.145
-0.14
-0.125
-0.13
-0.125
-0.12
-0.11
-0.09
-0.08
-0.075
-0.08
-0.08
-0.075
-0.04
-0.01
-0.005
-0.005
0.005
0
0.025
0.04
0.05
0.05
0.06
0.095
0.12
0.13
0.135
0.13
0.135
0.15
0.17
0.185
0.175
0.155
0.15
0.13
0.13
0.11
0.105
0.075
0.045
0.03
0.01
-0.03
-0.065
-0.1
-0.13
-0.135
-0.145
-0.145
-0.16
-0.2
-0.225
-0.245
-0.265
-0.255
-0.265
-0.315
-0.33
-0.32
-0.315
-0.33
-0.345
-0.36
-0.38
-0.36
-0.33
-0.325
-0.335
-0.35
-0.38
-0.38
-0.355
-0.345
-0.35
-0.35
-0.37
-0.355
-0.355
-0.335
-0.345
-0.365
-0.375
-0.34
-0.32
-0.32
-0.34
-0.35
-0.36
-0.36
-0.345
-0.34
-0.34
-0.345
-0.335
-0.34
-0.33
-0.345
-0.37
-0.36
-0.355
-0.34
-0.325
-0.34
-0.355
-0.37
-0.385
-0.375
-0.355
-0.355
-0.345
-0.36
-0.37
-0.37
-0.37
-0.355
-0.365
-0.375
-0.365
-0.34
-0.315
-0.29
-0.285
-0.29
-0.29
-0.27
-0.25
-0.215
-0.2
-0.185
-0.165
-0.145
-0.14
-0.13
-0.135
-0.13
-0.145
-0.15
-0.14
-0.155
-0.195
-0.265
-0.31
-0.365
-0.365
-0.35
-0.365
-0.375
-0.41
-0.41
-0.42
-0.435
-0.425
-0.44
-0.455
-0.44
-0.42
-0.42
-0.45
-0.465
-0.485
-0.47
-0.465
-0.42
-0.43
-0.45
-0.46
-0.445
-0.44
-0.41
-0.41
-0.415
-0.39
-0.33
-0.24
-0.085
0.125
0.38
0.675
0.98
1.18
1.19
0.93
0.475
-0.065
-0.495
-0.725
-0.75
-0.695
-0.66
-0.675
-0.715
-0.755
-0.8
-0.835
-0.875
-0.88
-0.855
-0.835
-0.825
-0.865
-0.895
-0.92
-0.915
-0.88
-0.83
-0.78
-0.735
-0.695
-0.65
-0.59
-0.515
-0.44
-0.395
-0.365
-0.34
-0.315
-0.3
-0.305
-0.305
-0.3
-0.295
-0.275
-0.245
-0.23
-0.255
-0.245
-0.235
-0.235
-0.21
-0.2
-0.205
-0.195
-0.175
-0.16
-0.145
-0.155
-0.165
-0.165
-0.14
-0.11
-0.085
-0.07
-0.07
-0.075
-0.065
-0.035
-0.02
-0.01
-0.005
0
0.04
0.075
0.095
0.095
0.085
0.095
0.12
0.16
0.185
0.2
0.175
0.19
0.185
0.18
0.21
0.195
0.175
0.155
0.14
0.12
0.1
0.06
0.015
-0.01
-0.03
-0.025
-0.035
-0.08
-0.115
-0.155
-0.155
-0.15
-0.155
-0.17
-0.19
-0.21
-0.215
-0.22
-0.225
-0.245
-0.275
-0.27
-0.24
-0.235
-0.23
-0.255
-0.26
-0.26
-0.27
-0.265
-0.245
-0.235
-0.235
-0.23
-0.235
-0.22
-0.2
-0.225
-0.22
-0.23
-0.21
-0.19
-0.185
-0.2
-0.205
-0.205
-0.195
-0.175
-0.165
-0.17
-0.185
-0.185
-0.185
-0.18
-0.175
-0.18
-0.175
-0.175
-0.155
-0.15
-0.15
-0.165
-0.175
-0.18
-0.175
-0.16
-0.145
-0.14
-0.155
-0.16
-0.165
-0.165
-0.135
-0.115
-0.105
-0.095
-0.06
-0.04
-0.03
-0.025
-0.025
-0.01
0.005
0.065
0.105
0.12
0.12
0.1
0.075
0.11
0.125
0.11
0.09
0.06
0.02
-0.005
-0.035
-0.085
-0.12
-0.14
-0.145
-0.135
-0.12
-0.15
-0.165
-0.19
-0.195
-0.185
-0.175
-0.175
-0.175
-0.19
-0.185
-0.185
-0.165
-0.19
-0.2
-0.215
-0.19
-0.17
-0.15
-0.17
-0.185
-0.195
-0.17
-0.145
-0.105
-0.06
-0.01
0.085
0.24
0.465
0.72
0.955
1.175
1.36
1.44
1.345
1.045
0.59
0.12
-0.26
-0.475
-0.52
-0.47
-0.405
-0.415
-0.46
-0.49
-0.505
-0.535
-0.565
-0.595
-0.59
-0.57
-0.545
-0.54
-0.56
-0.6
-0.625
-0.605
-0.545
-0.495
-0.44
-0.39
-0.335
-0.25
-0.165
-0.115
-0.08
-0.075
-0.065
-0.025
-0.005
0.025
0.02
0.025
0.01
0.035
0.05
0.07
0.075
0.07
0.06
0.065
0.09
0.09
0.08
0.08
0.09
0.1
0.13
0.125
0.125
0.115
0.11
0.14
0.16
0.175
0.185
0.2
0.2
0.225
0.25
0.255
0.275
0.275
0.295
0.315
0.345
0.35
0.37
0.36
0.37
0.385
0.415
0.425
0.44
0.41
0.41
0.4
0.395
0.405
0.375
0.36
0.335
0.32
0.29
0.275
0.24
0.195
0.17
0.155
0.16
0.14
0.1
0.075
0.055
0.045
0.035
0.025
0
-0.015
-0.025
-0.04
-0.03
-0.05
-0.075
-0.095
-0.1
-0.075
-0.07
-0.06
-0.065
-0.085
-0.095
-0.115
-0.105
-0.105
-0.085
-0.1
-0.095
-0.085
-0.07
-0.065
-0.07
-0.085
-0.095
-0.12
-0.09
-0.06
-0.055
-0.075
-0.095
-0.085
-0.075
-0.085
-0.08
-0.09
-0.09
-0.09
-0.075
-0.065
-0.08
-0.085
-0.11
-0.105
-0.09
-0.075
-0.07
-0.075
-0.095
-0.09
-0.09
-0.105
-0.11
-0.125
-0.12
-0.1
-0.085
-0.07
-0.1
-0.115
-0.11
-0.105
-0.095
-0.045
-0.035
-0.015
-0.01
-0.005
0.025
0.03
0.04
0.05
0.065
0.11
0.155
0.17
0.17
0.145
0.145
0.13
0.145
0.14
0.125
0.09
0.055
0.01
-0.005
-0.035
-0.065
-0.11
-0.13
-0.13
-0.115
-0.105
-0.13
-0.16
-0.19
-0.185
-0.18
-0.175
-0.17
-0.18
-0.195
-0.22
-0.21
-0.195
-0.205
-0.22
-0.235
-0.24
-0.22
-0.18
-0.18
-0.2
-0.205
-0.2
-0.185
-0.17
-0.15
-0.13
-0.075
0.04
0.21
0.415
0.645
0.895
1.12
1.315
1.395
1.295
0.965
0.5
0.025
-0.345
-0.535
-0.55
-0.495
-0.45
-0.455
-0.485
-0.5
-0.52
-0.575
-0.61
-0.645
-0.64
-0.605
-0.575
-0.6
-0.62
-0.635
-0.665
-0.635
-0.615
-0.56
-0.525
-0.495
-0.45
-0.385
-0.315
-0.26
-0.22
-0.18
-0.145
-0.12
-0.105
-0.08
-0.08
-0.075
-0.05
-0.035
-0.015
-0.015
-0.035
-0.035
-0.015
-0.005
0.015
0.015
0.015
0.01
0.005
0.02
0.02
0.03
0.04
0.045
0.06
0.085
0.085
0.07
0.065
0.055
0.085
0.11
0.135
0.14
0.13
0.145
0.17
0.175
0.195
0.205
0.205
0.215
0.235
0.27
0.3
0.3
0.3
0.295
0.31
0.325
0.345
0.345
0.355
0.355
0.385
0.39
0.39
0.37
0.335
0.295
0.305
0.31
0.31
0.285
0.245
0.195
0.185
0.175
0.155
0.13
0.105
0.085
0.07
0.065
0.04
0.015
-0.01
-0.03
-0.05
-0.055
-0.05
-0.055
-0.09
-0.115
-0.1
-0.09
-0.105
-0.13
-0.15
-0.155
-0.135
-0.135
-0.12
-0.125
-0.145
-0.165
-0.16
-0.145
-0.12
-0.13
-0.15
-0.15
-0.155
-0.14
-0.135
-0.16
-0.155
-0.155
-0.145
-0.125
-0.1
-0.115
-0.135
-0.14
-0.145
-0.13
-0.12
-0.13
-0.135
-0.14
-0.14
-0.135
-0.125
-0.13
-0.155
-0.16
-0.165
-0.14
-0.125
-0.13
-0.135
-0.155
-0.17
-0.175
-0.155
-0.165
-0.18
-0.18
-0.17
-0.155
-0.155
-0.19
-0.19
-0.22
-0.215
-0.19
-0.175
-0.155
-0.145
-0.145
-0.13
-0.105
-0.1
-0.09
-0.115
-0.115
-0.075
-0.035
0.005
0.035
0.02
0.005
0.025
0.01
0.015
0.01
0
-0.04
-0.02
-0.03
-0.065
-0.13
-0.205
-0.245
-0.255
-0.245
-0.23
-0.25
-0.285
-0.29
-0.285
-0.295
-0.31
-0.325
-0.36
-0.35
-0.345
-0.335
-0.31
-0.345
-0.355
-0.37
-0.37
-0.36
-0.35
-0.355
-0.36
-0.37
-0.36
-0.345
-0.33
-0.36
-0.355
-0.355
-0.33
-0.3
-0.24
-0.2
-0.105
0.01
0.185
0.395
0.645
0.85
1.03
1.125
1.17
1.06
0.795
0.39
-0.02
-0.37
-0.61
-0.7
-0.68
-0.62
-0.625
-0.635
-0.67
-0.685
-0.705
-0.735
-0.785
-0.8
-0.785
-0.765
-0.755
-0.77
-0.795
-0.82
-0.825
-0.815
-0.79
-0.755
-0.74
-0.705
-0.65
-0.595
-0.515
-0.475
-0.445
-0.395
-0.34
-0.31
-0.28
-0.285
-0.28
-0.275
-0.245
-0.235
-0.245
-0.24
-0.24
-0.24
-0.23
-0.21
-0.19
-0.195
-0.19
-0.225
-0.215
-0.19
-0.165
-0.175
-0.17
-0.17
-0.155
-0.125
-0.11
-0.12
-0.135
-0.155
-0.13
-0.11
-0.08
-0.07
-0.075
-0.075
-0.05
-0.04
-0.02
-0.025
-0.03
-0.025
0
0.05
0.065
0.085
0.085
0.075
0.07
0.11
0.145
0.13
0.125
0.135
0.135
0.145
0.145
0.135
0.095
0.07
0.08
0.065
0.06
0.04
0
-0.03
-0.07
-0.09
-0.095
-0.115
-0.16
-0.17
-0.19
-0.195
-0.23
-0.26
-0.29
-0.31
-0.32
-0.31
-0.305
-0.31
-0.355
-0.385
-0.385
-0.39
-0.38
-0.395
-0.4
-0.415
-0.4
-0.385
-0.375
-0.395
-0.4
-0.415
-0.41
-0.4
-0.375
-0.375
-0.37
-0.38
-0.4
-0.395
-0.37
-0.385
-0.395
-0.405
-0.39
-0.375
-0.35
-0.355
-0.375
-0.4
-0.37
-0.36
-0.35
-0.345
-0.35
-0.355
-0.345
-0.345
-0.355
-0.35
-0.37
-0.38
-0.37
-0.365
-0.34
-0.355
-0.35
-0.375
-0.37
-0.37
-0.345
-0.365
-0.36
-0.35
-0.325
-0.285
-0.28
-0.27
-0.285
-0.28
-0.255
-0.23
-0.19
-0.18
-0.17
-0.155
-0.14
-0.14
-0.105
-0.115
-0.115
-0.12
-0.11
-0.1
-0.12
-0.13
-0.17
-0.22
-0.27
-0.28
-0.29
-0.3
-0.32
-0.345
-0.365
-0.36
-0.365
-0.38
-0.395
-0.395
-0.38
-0.375
-0.37
-0.38
-0.4
-0.43
-0.42
-0.395
-0.375
-0.395
-0.4
-0.395
-0.385
-0.355
-0.355
-0.37
-0.375
-0.37
-0.35
-0.31
-0.29
-0.26
-0.23
-0.18
-0.035
0.145
0.39
0.645
0.88
1.08
1.18
1.15
0.9
0.475
0.01
-0.375
-0.595
-0.66
-0.595
-0.55
-0.56
-0.6
-0.645
-0.67
-0.68
-0.705
-0.735
-0.735
-0.715
-0.695
-0.695
-0.73
-0.735
-0.755
-0.735
-0.715
-0.65
-0.605
-0.575
-0.54
-0.475
-0.445
-0.365
-0.29
-0.25
-0.22
-0.185
-0.14
-0.13
-0.12
-0.135
-0.12
-0.11
-0.075
-0.075
-0.065
-0.07
-0.05
-0.045
-0.04
-0.02
-0.02
-0.02
-0.03
-0.005
0.03
0.05
0.035
0.035
0.015
0.03
0.055
0.075
0.08
0.085
0.09
0.105
0.14
0.155
0.15
0.145
0.165
0.18
0.225
0.26
0.27
0.26
0.265
0.295
0.31
0.355
0.365
0.36
0.38
0.39
0.41
0.43
0.415
0.41
0.39
0.395
0.395
0.395
0.39
0.335
0.32
0.3
0.29
0.27
0.24
0.22
0.19
0.175
0.165
0.155
0.125
0.1
0.065
0.04
0.04
0.03
0.01
-0.005
-0.03
-0.055
-0.055
-0.065
-0.06
-0.105
-0.105
-0.105
-0.08
-0.065
-0.09
-0.095
-0.11
-0.105
-0.085
-0.085
-0.095
-0.11
-0.105
-0.09
-0.075
-0.065
-0.08
-0.09
-0.1
-0.085
-0.065
-0.06
-0.055
-0.075
-0.065
-0.065
-0.06
-0.055
-0.065
-0.07
-0.055
-0.045
-0.035
-0.04
-0.06
-0.075
-0.075
-0.065
-0.065
-0.065
-0.045
-0.05
-0.04
-0.055
-0.045
-0.05
-0.05
-0.08
-0.07
-0.055
-0.03
-0.03
-0.045
-0.04
-0.06
-0.045
-0.04
-0.045
-0.02
-0.03
-0.015
0.02
0.06
0.075
0.085
0.075
0.09
0.09
0.125
0.155
0.17
0.165
0.18
0.195
0.21
0.225
0.23
0.205
0.205
0.21
0.205
0.19
0.16
0.105
0.055
0.015
-0.005
-0.03
-0.04
-0.05
-0.065
-0.08
-0.075
-0.08
-0.1
-0.11
-0.125
-0.105
-0.085
-0.09
-0.1
-0.11
-0.13
-0.125
-0.095
-0.09
-0.09
-0.12
-0.105
-0.075
-0.06
-0.06
-0.07
-0.085
-0.085
-0.045
0
0.035
0.08
0.15
0.245
0.415
0.64
0.875
1.09
1.295
1.44
1.535
1.405
1.08
0.6
0.13
-0.205
-0.395
-0.395
-0.335
-0.29
-0.29
-0.345
-0.4
-0.43
-0.43
-0.44
-0.47
-0.48
-0.475
-0.465
-0.485
-0.505
-0.535
-0.55
-0.505
-0.45
-0.385
-0.34
-0.315
-0.265
-0.2
-0.13
-0.05
-0.005
0.025
0.045
0.065
0.095
0.11
0.105
0.095
0.1
0.11
0.14
0.205
0.2
0.15
0.115
0.11
0.135
0.165
0.165
0.15
0.155
0.175
0.195
0.21
0.2
0.19
0.185
0.2
0.215
0.23
0.235
0.23
0.25
0.26
0.275
0.285
0.28
0.285
0.29
0.325
0.355
0.38
0.395
0.385
0.385
0.395
0.405
0.45
0.445
0.425
0.405
0.425
0.43
0.44
0.43
0.405
0.385
0.38
0.385
0.39
0.35
0.305
0.265
0.23
0.21
0.205
0.185
0.135
0.105
0.09
0.085
0.085
0.035
0.005
-0.04
-0.06
-0.045
-0.055
-0.08
-0.12
-0.15
-0.145
-0.145
-0.145
-0.16
-0.165
-0.175
-0.195
-0.205
-0.22
-0.24
-0.225
-0.23
-0.21
-0.2
-0.18
-0.21
-0.22
-0.25
-0.25
-0.225
-0.205
-0.205
-0.2
-0.2
-0.195
-0.185
-0.19
-0.195
-0.22
-0.22
-0.22
-0.215
-0.18
-0.19
-0.21
-0.245
-0.255
-0.26
-0.25
-0.24
-0.26
-0.255
-0.235
-0.215
-0.22
-0.23
-0.255
-0.27
-0.255
-0.235
-0.215
-0.225
-0.245
-0.25
-0.235
-0.21
-0.205
-0.23
-0.23
-0.225
-0.2
-0.16
-0.14
-0.135
-0.14
-0.14
-0.135
-0.12
-0.085
-0.05
-0.025
-0.035
-0.03
-0.005
-0.01
-0.025
-0.04
-0.055
-0.065
-0.065
-0.105
-0.155
-0.22
-0.245
-0.255
-0.235
-0.25
-0.285
-0.31
-0.34
-0.335
-0.315
-0.305
-0.31
-0.345
-0.36
-0.36
-0.355
-0.385
-0.4
-0.43
-0.44
-0.41
-0.39
-0.36
-0.345
-0.355
-0.37
-0.37
-0.38
-0.37
-0.36
-0.365
-0.355
-0.32
-0.25
-0.18
-0.1
0.03
0.23
0.485
0.74
1
1.155
1.2
1.065
0.715
0.26
-0.15
-0.505
-0.715
-0.75
-0.66
-0.59
-0.58
-0.645
-0.705
-0.75
-0.785
-0.8
-0.805
-0.805
-0.83
-0.84
-0.835
-0.845
-0.835
-0.85
-0.88
-0.88
-0.825
-0.775
-0.72
-0.68
-0.645
-0.61
-0.565
-0.495
-0.445
-0.4
-0.38
-0.365
-0.335
-0.325
-0.3
-0.3
-0.3
-0.305
-0.295
-0.275
-0.25
-0.26
-0.25
-0.26
-0.235
-0.225
-0.21
-0.23
-0.225
-0.225
-0.205
-0.165
-0.145
-0.15
-0.185
-0.17
-0.145
-0.125
-0.115
-0.095
-0.11
-0.12
-0.115
-0.11
-0.065
-0.045
-0.04
-0.04
0
0.02
0.07
0.07
0.07
0.07
0.08
0.105
0.135
0.145
0.145
0.14
0.155
0.17
0.17
0.155
0.12
0.105
0.105
0.11
0.1
0.07
0.025
-0.005
-0.035
-0.065
-0.07
-0.09
-0.13
-0.145
-0.16
-0.175
-0.195
-0.245
-0.275
-0.31
-0.32
-0.32
-0.325
-0.32
-0.355
-0.375
-0.385
-0.365
-0.36
-0.37
-0.37
-0.38
-0.375
-0.355
-0.365
-0.38
-0.375
-0.37
-0.35
-0.345
-0.34
-0.34
-0.34
-0.345
-0.345
-0.32
-0.325
-0.34
-0.34
-0.34
-0.3
-0.3
-0.32
-0.33
-0.325
-0.32
-0.3
-0.295
-0.285
-0.3
-0.31
-0.33
-0.305
-0.285
-0.27
-0.28
-0.295
-0.31
-0.305
-0.29
-0.3
-0.29
-0.3
-0.285
-0.265
-0.245
-0.225
-0.215
-0.195
-0.19
-0.175
-0.16
-0.12
-0.125
-0.11
-0.1
-0.055
-0.02
0.005
0.03
0.03
0.01
-0.005
-0.03
-0.025
-0.05
-0.08
-0.135
-0.145
-0.145
-0.15
-0.205
-0.25
-0.28
-0.3
-0.255
-0.235
-0.225
-0.255
-0.28
-0.31
-0.305
-0.305
-0.31
-0.295
-0.305
-0.3
-0.285
-0.265
-0.255
-0.25
-0.27
-0.28
-0.285
-0.28
-0.25
-0.23
-0.21
-0.18
-0.14
-0.055
0.05
0.23
0.465
0.745
1
1.225
1.335
1.295
1.03
0.585
0.065
-0.325
-0.56
-0.59
-0.53
-0.475
-0.495
-0.545
-0.6
-0.635
-0.675
-0.69
-0.665
-0.67
-0.69
-0.72
-0.73
-0.725
-0.705
-0.66
-0.635
-0.595
-0.535
-0.495
-0.435
-0.35
-0.29
-0.23
-0.175
-0.135
-0.105
-0.105
-0.1
-0.11
-0.1
-0.065
-0.035
-0.01
-0.025
-0.045
-0.07
-0.06
-0.025
-0.005
0.01
0.015
0.02
0.015
0.01
0
0.025
0.015
0.035
0.07
0.085
0.075
0.095
0.085
0.065
0.09
0.12
0.165
0.175
0.2
0.2
0.22
0.255
0.27
0.285
0.285
0.29
0.305
0.32
0.33
0.335
0.34
0.325
0.345
0.375
0.395
0.39
0.365
0.345
0.315
0.31
0.315
0.28
0.22
0.195
0.19
0.2
0.175
0.13
0.095
0.06
0.04
0.035
0.04
0.02
0
-0.015
-0.02
-0.02
-0.045
-0.105
-0.145
-0.175
-0.165
-0.13
-0.105
-0.105
-0.13
-0.175
-0.175
-0.17
-0.165
-0.15
-0.165
-0.195
-0.195
-0.17
-0.16
-0.165
-0.17
-0.165
-0.135
-0.11
-0.11
-0.14
-0.16
-0.17
-0.155
-0.135
-0.125
-0.115
-0.125
-0.12
-0.12
-0.1
-0.1
-0.115
-0.12
-0.13
-0.155
-0.15
-0.13
-0.11
-0.12
-0.125
-0.14
-0.125
-0.12
-0.12
-0.125
-0.12
-0.115
-0.085
-0.095
-0.12
-0.16
-0.155
-0.125
-0.08
-0.04
-0.03
-0.05
-0.04
-0.015
0
0.03
0.045
0.07
0.11
0.13
0.14
0.13
0.1
0.105
0.105
0.115
0.125
0.13
0.09
0.025
-0.055
-0.13
-0.13
-0.135
-0.14
-0.145
-0.175
-0.18
-0.19
-0.195
-0.215
-0.215
-0.205
-0.185
-0.17
-0.2
-0.225
-0.22
-0.215
-0.21
-0.215
-0.21
-0.23
-0.23
-0.22
-0.215
-0.2
-0.195
-0.195
-0.215
-0.19
-0.145
-0.06
0.07
0.225
0.425
0.67
0.955
1.2
1.36
1.305
0.995
0.49
-0.05
-0.44
-0.605
-0.575
-0.495
-0.49
-0.54
-0.58
-0.6
-0.63
-0.67
-0.68
-0.71
-0.705
-0.705
-0.735
-0.765
-0.77
-0.725
-0.665
-0.59
-0.53
-0.485
-0.45
-0.4
-0.325
-0.245
-0.195
-0.165
-0.145
-0.135
-0.115
-0.11
-0.125
-0.13
-0.14
-0.115
-0.08
-0.065
-0.07
-0.09
-0.09
-0.08
-0.065
-0.04
-0.05
-0.05
-0.045
-0.025
-0.01
0
-0.01
0
0.015
0.03
0.03
0.075
0.09
0.1
0.09
0.105
0.105
0.145
0.17
0.17
0.18
0.2
0.215
0.24
0.245
0.245
0.255
0.29
0.33
0.355
0.325
0.29
0.255
0.25
0.275
0.28
0.255
0.215
0.165
0.15
0.125
0.075
0.03
0
-0.005
-0.015
-0.05
-0.07
-0.105
-0.13
-0.13
-0.12
-0.115
-0.12
-0.135
-0.17
-0.23
-0.23
-0.235
-0.235
-0.24
-0.25
-0.26
-0.265
-0.265
-0.275
-0.275
-0.28
-0.265
-0.24
-0.225
-0.215
-0.245
-0.25
-0.265
-0.285
-0.275
-0.255
-0.24
-0.24
-0.245
-0.25
-0.23
-0.23
-0.25
-0.285
-0.3
-0.285
-0.255
-0.23
-0.235
-0.265
-0.265
-0.24
-0.22
-0.23
-0.26
-0.28
-0.255
-0.245
-0.245
-0.255
-0.29
-0.295
-0.285
-0.27
-0.255
-0.255
-0.245
-0.275
-0.275
-0.27
-0.27
-0.27
-0.285
-0.27
-0.295
-0.275
-0.265
-0.25
-0.22
-0.195
-0.185
-0.155
-0.145
-0.125
-0.115
-0.13
-0.115
-0.085
-0.045
-0.01
0.02
0.005
0
0.02
0.025
0.025
-0.03
-0.075
-0.12
-0.145
-0.16
-0.185
-0.225
-0.27
-0.29
-0.295
-0.3
-0.28
-0.295
-0.33
-0.34
-0.34
-0.34
-0.33
-0.33
-0.35
-0.36
-0.355
-0.335
-0.325
-0.34
-0.36
-0.375
-0.34
-0.335
-0.315
-0.315
-0.31
-0.305
-0.305
-0.275
-0.245
-0.21
-0.145
-0.045
0.12
0.335
0.585
0.81
1.025
1.18
1.245
1.155
0.85
0.395
-0.06
-0.39
-0.57
-0.585
-0.54
-0.545
-0.59
-0.645
-0.685
-0.695
-0.715
-0.755
-0.745
-0.75
-0.75
-0.73
-0.73
-0.745
-0.74
-0.73
-0.68
-0.63
-0.6
-0.575
-0.515
-0.435
-0.345
-0.275
-0.245
-0.235
-0.225
-0.205
-0.19
-0.15
-0.12
-0.11
-0.12
-0.15
-0.12
-0.095
-0.085
-0.11
-0.135
-0.155
-0.145
-0.1
-0.06
-0.045
-0.065
-0.08
-0.105
-0.085
-0.07
-0.075
-0.065
-0.045
-0.05
-0.035
-0.02
-0.02
-0.03
0
0.02
0.05
0.075
0.095
0.075
0.075
0.08
0.1
0.11
0.125
0.125
0.135
0.15
0.18
0.195
0.19
0.185
0.195
0.215
0.22
0.24
0.205
0.175
0.145
0.125
0.105
0.1
0.085
0.05
0.015
0.005
-0.025
-0.045
-0.065
-0.095
-0.13
-0.13
-0.135
-0.135
-0.165
-0.19
-0.24
-0.27
-0.265
-0.27
-0.265
-0.26
-0.275
-0.3
-0.3
-0.295
-0.3
-0.33
-0.355
-0.365
-0.36
-0.34
-0.34
-0.365
-0.38
-0.37
-0.36
-0.345
-0.345
-0.345
-0.345
-0.34
-0.34
-0.335
-0.345
-0.355
-0.355
-0.35
-0.35
-0.34
-0.35
-0.35
-0.365
-0.34
-0.325
-0.32
-0.37
-0.39
-0.42
-0.44
-0.435
-0.4
-0.405
-0.39
-0.395
-0.385
-0.395
-0.385
-0.425
-0.46
-0.46
-0.465
-0.44
-0.41
-0.41
-0.43
-0.44
-0.43
-0.42
-0.37
-0.34
-0.305
-0.305
-0.32
-0.33
-0.325
-0.335
-0.355
-0.335
-0.305
-0.255
-0.21
-0.18
-0.175
-0.2
-0.22
-0.21
-0.205
-0.225
-0.26
-0.285
-0.305
-0.325
-0.365
-0.41
-0.455
-0.475
-0.495
-0.495
-0.485
-0.51
-0.55
-0.57
-0.57
-0.555
-0.555
-0.565
-0.575
-0.58
-0.58
-0.57
-0.575
-0.585
-0.615
-0.625
-0.61
-0.58
-0.575
-0.57
-0.575
-0.58
-0.58
-0.56
-0.545
-0.535
-0.495
-0.43
-0.335
-0.2
-0.03
0.16
0.39
0.625
0.835
0.93
0.835
0.515
0.09
-0.345
-0.66
-0.85
-0.875
-0.815
-0.775
-0.79
-0.855
-0.875
-0.925
-0.975
-1.04
-1.05
-1.035
-1.005
-0.985
-1.005
-1.05
-1.05
-1.085
-1.055
-1.025
-0.975
-0.935
-0.885
-0.825
-0.755
-0.69
-0.645
-0.62
-0.61
-0.57
-0.53
-0.485
-0.48
-0.47
-0.48
-0.5
-0.48
-0.48
-0.475
-0.48
-0.48
-0.48
-0.465
-0.43
-0.44
-0.445
-0.46
-0.45
-0.425
-0.41
-0.4
-0.42
-0.38
-0.39
-0.37
-0.36
-0.345
-0.355
-0.34
-0.325
-0.31
-0.28
-0.26
-0.275
-0.275
-0.285
-0.275
-0.245
-0.23
-0.22
-0.215
-0.195
-0.17
-0.155
-0.155
-0.165
-0.145
-0.13
-0.09
-0.065
-0.065
-0.09
-0.115
-0.135
-0.135
-0.14
-0.155
-0.17
-0.2
-0.205
-0.21
-0.24
-0.32
-0.385
-0.42
-0.42
-0.41
-0.395
-0.42
-0.46
-0.49
-0.53
-0.53
-0.52
-0.535
-0.555
-0.57
-0.585
-0.575
-0.565
-0.585
-0.605
-0.635
-0.64
-0.625
-0.615
-0.605
-0.605
-0.625
-0.625
-0.625
-0.615
-0.615
-0.63
-0.635
-0.605
-0.59
-0.585
-0.6
-0.62
-0.625
-0.625
-0.605
-0.595
-0.605
-0.62
-0.605
-0.6
-0.58
-0.575
-0.595
-0.61
-0.61
-0.6
-0.58
-0.57
-0.58
-0.595
-0.605
-0.61
-0.605
-0.58
-0.595
-0.62
-0.605
-0.59
-0.59
-0.58
-0.57
-0.575
-0.56
-0.54
-0.53
-0.51
-0.525
-0.54
-0.545
-0.535
-0.49
-0.455
-0.44
-0.42
-0.41
-0.375
-0.355
-0.34
-0.355
-0.36
-0.365
-0.35
-0.335
-0.355
-0.38
-0.42
-0.49
-0.545
-0.59
-0.62
-0.62
-0.625
-0.625
-0.635
-0.62
-0.595
-0.6
-0.64
-0.685
-0.685
-0.665
-0.66
-0.675
-0.685
-0.705
-0.7
-0.675
-0.655
-0.67
-0.675
-0.64
-0.62
-0.61
-0.6
-0.595
-0.6
-0.605
-0.585
-0.515
-0.45
-0.35
-0.22
-0.045
0.19
0.45
0.71
0.885
0.92
0.77
0.415
-0.025
-0.465
-0.77
-0.9
-0.9
-0.835
-0.805
-0.82
-0.88
-0.93
-0.99
-1.005
-1.015
-0.985
-0.97
-0.98
-0.985
-0.995
-1.005
-1.005
-1.02
-0.975
-0.955
-0.905
-0.84
-0.795
-0.745
-0.715
-0.645
-0.575
-0.51
-0.47
-0.46
-0.46
-0.445
-0.42
-0.405
-0.38
-0.39
-0.395
-0.385
-0.365
-0.34
-0.32
-0.315
-0.33
-0.33
-0.325
-0.31
-0.29
-0.29
-0.29
-0.3
-0.265
-0.25
-0.22
-0.23
-0.23
-0.235
-0.205
-0.175
-0.12
-0.1
-0.1
-0.12
-0.125
-0.105
-0.06
-0.03
-0.01
-0.01
0.005
0.035
0.07
0.075
0.045
0.03
0.045
0.085
0.1
0.12
0.12
0.095
0.095
0.09
0.07
0.035
-0.015
-0.04
-0.03
-0.03
-0.055
-0.09
-0.12
-0.15
-0.175
-0.18
-0.185
-0.21
-0.23
-0.265
-0.275
-0.29
-0.305
-0.32
-0.335
-0.35
-0.385
-0.38
-0.375
-0.385
-0.41
-0.415
-0.405
-0.385
-0.36
-0.355
-0.385
-0.415
-0.425
-0.415
-0.39
-0.395
-0.41
-0.41
-0.38
-0.37
-0.365
-0.39
-0.39
-0.41
-0.4
-0.38
-0.385
-0.365
-0.36
-0.35
-0.355
-0.38
-0.39
-0.4
-0.385
-0.385
-0.39
-0.355
-0.335
-0.35
-0.355
-0.365
-0.38
-0.35
-0.335
-0.33
-0.34
-0.355
-0.355
-0.335
-0.3
-0.31
-0.325
-0.31
-0.29
-0.255
-0.245
-0.24
-0.25
-0.245
-0.21
-0.17
-0.145
-0.13
-0.125
-0.135
-0.14
-0.085
-0.08
-0.1
-0.12
-0.13
-0.14
-0.175
-0.2
-0.24
-0.255
-0.3
-0.33
-0.34
-0.34
-0.375
-0.415
-0.42
-0.415
-0.385
-0.385
-0.405
-0.44
-0.435
-0.445
-0.435
-0.44
-0.43
-0.43
-0.435
-0.44
-0.435
-0.445
-0.45
-0.47
-0.45
-0.44
-0.42
-0.395
-0.405
-0.395
-0.39
-0.38
-0.35
-0.295
-0.235
-0.135
0.025
0.235
0.49
0.735
0.955
1.095
1.095
0.895
0.55
0.135
-0.28
-0.585
-0.725
-0.71
-0.655
-0.64
-0.685
-0.73
-0.785
-0.785
-0.795
-0.785
-0.8
-0.815
-0.805
-0.81
-0.815
-0.82
-0.825
-0.83
-0.82
-0.79
-0.77
-0.72
-0.685
-0.655
-0.585
-0.525
-0.44
-0.355
-0.335
-0.31
-0.315
-0.295
-0.26
-0.24
-0.225
-0.215
-0.23
-0.24
-0.23
-0.23
-0.225
-0.25
-0.235
-0.22
-0.19
-0.155
-0.155
-0.17
-0.19
-0.19
-0.18
-0.165
-0.155
-0.155
-0.155
-0.125
-0.1
-0.095
-0.095
-0.12
-0.115
-0.085
-0.05
-0.03
-0.02
-0.03
-0.04
0.015
0.03
0.045
0.06
0.06
0.065
0.09
0.12
0.16
0.155
0.135
0.135
0.145
0.145
0.165
0.175
0.175
0.15
0.135
0.115
0.115
0.08
0.05
0
-0.005
-0.01
-0.01
-0.04
-0.085
-0.13
-0.145
-0.165
-0.16
-0.19
-0.23
-0.245
-0.26
-0.25
-0.265
-0.295
-0.35
-0.37
-0.37
-0.35
-0.325
-0.335
-0.365
-0.405
-0.41
-0.425
-0.395
-0.39
-0.395
-0.415
-0.395
-0.395
-0.375
-0.395
-0.405
-0.415
-0.43
-0.4
-0.385
-0.365
-0.365
-0.365
-0.355
-0.345
-0.355
-0.38
-0.395
-0.415
-0.41
-0.395
-0.365
-0.355
-0.37
-0.36
-0.365
-0.34
-0.355
-0.36
-0.37
-0.405
-0.38
-0.36
-0.345
-0.36
-0.37
-0.39
-0.39
-0.365
-0.34
-0.345
-0.365
-0.395
-0.38
-0.355
-0.335
-0.305
-0.3
-0.295
-0.265
-0.25
-0.235
-0.24
-0.24
-0.225
-0.175
-0.125
-0.095
-0.105
-0.145
-0.15
-0.145
-0.13
-0.105
-0.12
-0.15
-0.18
-0.205
-0.225
-0.26
-0.325
-0.37
-0.405
-0.4
-0.4
-0.38
-0.39
-0.415
-0.44
-0.45
-0.455
-0.445
-0.45
-0.465
-0.475
-0.46
-0.445
-0.43
-0.445
-0.46
-0.475
-0.46
-0.455
-0.445
-0.43
-0.43
-0.43
-0.425
-0.415
-0.39
-0.4
-0.41
-0.4
-0.345
-0.26
-0.14
0.005
0.165
0.365
0.61
0.85
1.045
1.11
1.02
0.72
0.255
-0.19
-0.53
-0.705
-0.75
-0.695
-0.67
-0.665
-0.685
-0.725
-0.775
-0.82
-0.83
-0.82
-0.79
-0.795
-0.81
-0.825
-0.845
-0.85
-0.845
-0.83
-0.815
-0.79
-0.74
-0.69
-0.63
-0.585
-0.545
-0.495
-0.445
-0.405
-0.355
-0.35
-0.34
-0.315
-0.305
-0.28
-0.26
-0.275
-0.275
-0.3
-0.3
-0.27
-0.25
-0.255
-0.255
-0.26
-0.255
-0.24
-0.22
-0.235
-0.235
-0.225
-0.21
-0.2
-0.19
-0.2
-0.205
-0.21
-0.195
-0.165
-0.14
-0.135
-0.13
-0.125
-0.115
-0.1
-0.08
-0.08
-0.08
-0.07
-0.04
-0.02
0
0.01
0.015
0.015
0.015
0.025
0.055
0.075
0.09
0.095
0.095
0.08
0.08
0.055
0.03
0
-0.025
-0.015
-0.03
-0.055
-0.08
-0.125
-0.16
-0.17
-0.175
-0.205
-0.235
-0.26
-0.255
-0.27
-0.29
-0.325
-0.375
-0.405
-0.39
-0.38
-0.365
-0.36
-0.39
-0.435
-0.46
-0.44
-0.445
-0.455
-0.485
-0.485
-0.475
-0.465
-0.445
-0.46
-0.49
-0.495
-0.495
-0.47
-0.46
-0.455
-0.46
-0.48
-0.48
-0.45
-0.445
-0.46
-0.485
-0.495
-0.465
-0.465
-0.44
-0.43
-0.45
-0.455
-0.47
-0.475
-0.46
-0.45
-0.465
-0.465
-0.465
-0.45
-0.445
-0.465
-0.485
-0.485
-0.475
-0.445
-0.425
-0.425
-0.43
-0.435
-0.45
-0.46
-0.475
-0.475
-0.48
-0.48
-0.47
-0.44
-0.39
-0.39
-0.4
-0.395
-0.385
-0.36
-0.335
-0.325
-0.31
-0.285
-0.255
-0.235
-0.225
-0.225
-0.24
-0.25
-0.245
-0.235
-0.235
-0.26
-0.32
-0.375
-0.415
-0.435
-0.435
-0.465
-0.495
-0.49
-0.485
-0.485
-0.48
-0.51
-0.55
-0.58
-0.57
-0.57
-0.545
-0.56
-0.565
-0.575
-0.57
-0.56
-0.565
-0.585
-0.6
-0.605
-0.59
-0.56
-0.545
-0.56
-0.56
-0.575
-0.57
-0.54
-0.51
-0.495
-0.46
-0.415
-0.35
-0.26
-0.145
0.03
0.26
0.505
0.775
0.96
1.005
0.835
0.47
0.015
-0.415
-0.7
-0.83
-0.83
-0.795
-0.79
-0.8
-0.83
-0.85
-0.895
-0.94
-0.98
-1
-0.945
-0.92
-0.92
-0.945
-0.97
-0.99
-0.99
-1
-0.985
-0.945
-0.925
-0.88
-0.82
-0.765
-0.73
-0.69
-0.645
-0.56
-0.52
-0.485
-0.465
-0.46
-0.44
-0.425
-0.405
-0.4
-0.39
-0.395
-0.4
-0.405
-0.385
-0.37
-0.38
-0.395
-0.405
-0.39
-0.385
-0.36
-0.35
-0.35
-0.355
-0.335
-0.31
-0.29
-0.31
-0.305
-0.31
-0.29
-0.26
-0.23
-0.23
-0.245
-0.23
-0.215
-0.19
-0.17
-0.165
-0.145
-0.15
-0.12
-0.1
-0.09
-0.075
-0.085
-0.08
-0.065
-0.035
0.01
0.025
0.01
-0.015
-0.005
0
0.01
-0.015
-0.045
-0.07
-0.08
-0.07
-0.085
-0.115
-0.165
-0.2
-0.225
-0.23
-0.24
-0.255
-0.29
-0.305
-0.325
-0.335
-0.345
-0.365
-0.39
-0.41
-0.425
-0.41
-0.41
-0.44
-0.47
-0.485
-0.48
-0.47
-0.46
-0.47
-0.465
-0.465
-0.465
-0.46
-0.45
-0.46
-0.48
-0.505
-0.475
-0.465
-0.45
-0.445
-0.465
-0.47
-0.465
-0.45
-0.445
-0.44
-0.455
-0.45
-0.43
-0.42
-0.415
-0.44
-0.45
-0.455
-0.455
-0.435
-0.42
-0.42
-0.425
-0.43
-0.42
-0.42
-0.405
-0.415
-0.42
-0.425
-0.42
-0.39
-0.375
-0.39
-0.39
-0.405
-0.395
-0.365
-0.35
-0.33
-0.315
-0.3
-0.295
-0.28
-0.25
-0.255
-0.26
-0.235
-0.2
-0.155
-0.12
-0.125
-0.13
-0.16
-0.145
-0.13
-0.125
-0.13
-0.155
-0.18
-0.205
-0.215
-0.26
-0.305
-0.35
-0.365
-0.365
-0.36
-0.355
-0.375
-0.385
-0.4
-0.41
-0.405
-0.405
-0.415
-0.43
-0.42
-0.425
-0.415
-0.39
-0.4
-0.42
-0.43
-0.425
-0.41
-0.39
-0.385
-0.4
-0.39
-0.385
-0.355
-0.36
-0.36
-0.35
-0.315
-0.26
-0.16
-0.03
0.13
0.335
0.59
0.86
1.095
1.22
1.18
0.9
0.46
0.015
-0.35
-0.56
-0.625
-0.6
-0.59
-0.595
-0.61
-0.63
-0.675
-0.73
-0.75
-0.76
-0.745
-0.715
-0.725
-0.73
-0.75
-0.76
-0.755
-0.745
-0.735
-0.7
-0.66
-0.615
-0.535
-0.48
-0.415
-0.36
-0.315
-0.27
-0.245
-0.225
-0.21
-0.22
-0.195
-0.18
-0.15
-0.135
-0.14
-0.14
-0.15
-0.13
-0.11
-0.085
-0.07
-0.08
-0.09
-0.085
-0.075
-0.065
-0.05
-0.055
-0.04
-0.03
-0.025
-0.005
-0.015
-0.015
-0.01
0.005
0.05
0.065
0.07
0.07
0.065
0.075
0.1
0.125
0.135
0.13
0.155
0.175
0.185
0.225
0.22
0.225
0.225
0.24
0.275
0.285
0.27
0.27
0.265
0.265
0.27
0.26
0.23
0.195
0.195
0.175
0.185
0.175
0.15
0.12
0.075
0.05
0.04
0.045
0.02
-0.01
-0.03
-0.055
-0.055
-0.055
-0.075
-0.12
-0.13
-0.155
-0.135
-0.14
-0.16
-0.165
-0.21
-0.195
-0.19
-0.185
-0.2
-0.21
-0.225
-0.215
-0.19
-0.205
-0.215
-0.22
-0.235
-0.225
-0.225
-0.185
-0.21
-0.22
-0.22
-0.215
-0.2
-0.195
-0.2
-0.21
-0.215
-0.195
-0.19
-0.175
-0.18
-0.205
-0.205
-0.195
-0.21
-0.185
-0.17
-0.185
-0.19
-0.19
-0.195
-0.19
-0.2
-0.2
-0.2
-0.205
-0.2
-0.185
-0.19
-0.22
-0.225
-0.23
-0.2
-0.175
-0.195
-0.19
-0.195
-0.19
-0.165
-0.145
-0.135
-0.13
-0.12
-0.075
-0.065
-0.06
-0.04
-0.04
-0.03
-0.005
0.01
0.055
0.06
0.035
0.05
0.04
0.03
0.035
0.005
-0.03
-0.065
-0.1
-0.14
-0.155
-0.18
-0.225
-0.245
-0.245
-0.24
-0.235
-0.245
-0.265
-0.285
-0.295
-0.305
-0.305
-0.3
-0.3
-0.305
-0.29
-0.29
-0.275
-0.28
-0.3
-0.315
-0.3
-0.3
-0.275
-0.265
-0.265
-0.26
-0.255
-0.21
-0.17
-0.09
0.055
0.22
0.47
0.76
1.04
1.245
1.325
1.185
0.81
0.29
-0.18
-0.51
-0.615
-0.6
-0.54
-0.545
-0.59
-0.625
-0.65
-0.7
-0.695
-0.68
-0.66
-0.69
-0.715
-0.71
-0.735
-0.73
-0.7
-0.67
-0.64
-0.595
-0.555
-0.505
-0.44
-0.385
-0.325
-0.29
-0.26
-0.22
-0.195
-0.205
-0.225
-0.2
-0.175
-0.15
-0.155
-0.145
-0.15
-0.17
-0.165
-0.16
-0.135
-0.135
-0.13
-0.13
-0.13
-0.115
-0.1
-0.095
-0.115
-0.11
-0.09
-0.055
-0.035
-0.025
-0.045
-0.04
-0.035
-0.015
0.01
0.04
0.025
0.06
0.055
0.085
0.105
0.11
0.12
0.125
0.15
0.18
0.195
0.2
0.205
0.19
0.205
0.225
0.245
0.235
0.215
0.195
0.18
0.17
0.16
0.125
0.115
0.08
0.07
0.06
0.045
0.01
-0.04
-0.065
-0.075
-0.085
-0.075
-0.09
-0.11
-0.15
-0.165
-0.17
-0.18
-0.21
-0.225
-0.245
-0.24
-0.235
-0.225
-0.24
-0.265
-0.28
-0.285
-0.27
-0.26
-0.26
-0.265
-0.28
-0.27
-0.265
-0.27
-0.28
-0.285
-0.275
-0.27
-0.26
-0.24
-0.26
-0.27
-0.28
-0.27
-0.26
-0.25
-0.245
-0.255
-0.27
-0.275
-0.26
-0.255
-0.26
-0.275
-0.28
-0.26
-0.255
-0.255
-0.28
-0.285
-0.29
-0.29
-0.275
-0.265
-0.275
-0.285
-0.315
-0.31
-0.285
-0.28
-0.275
-0.285
-0.295
-0.28
-0.255
-0.265
-0.255
-0.26
-0.24
-0.215
-0.18
-0.175
-0.155
-0.15
-0.15
-0.13
-0.1
-0.065
-0.045
-0.03
-0.025
-0.005
0.005
0.015
-0.015
-0.05
-0.1
-0.105
-0.115
-0.15
-0.195
-0.235
-0.26
-0.275
-0.285
-0.32
-0.33
-0.335
-0.345
-0.35
-0.335
-0.355
-0.37
-0.39
-0.42
-0.42
-0.38
-0.35
-0.35
-0.36
-0.375
-0.375
-0.38
-0.37
-0.38
-0.37
-0.375
-0.36
-0.33
-0.305
-0.32
-0.3
-0.27
-0.195
-0.055
0.1
0.315
0.55
0.795
1.045
1.22
1.18
0.89
0.435
-0.035
-0.415
-0.615
-0.67
-0.645
-0.63
-0.645
-0.68
-0.695
-0.715
-0.755
-0.785
-0.79
-0.8
-0.79
-0.785
-0.795
-0.8
-0.825
-0.8
-0.76
-0.71
-0.68
-0.64
-0.61
-0.525
-0.435
-0.365
-0.35
-0.345
-0.34
-0.345
-0.31
-0.295
-0.295
-0.285
-0.285
-0.275
-0.25
-0.25
-0.265
-0.275
-0.26
-0.235
-0.225
-0.205
-0.21
-0.225
-0.24
-0.22
-0.21
-0.185
-0.18
-0.17
-0.16
-0.16
-0.145
-0.12
-0.12
-0.125
-0.11
-0.1
-0.075
-0.055
-0.045
-0.07
-0.055
-0.035
-0.015
0.02
0.03
0.02
0.04
0.05
0.08
0.085
0.08
0.08
0.075
0.085
0.095
0.075
0.06
0.015
-0.005
-0.03
-0.03
-0.05
-0.065
-0.105
-0.145
-0.175
-0.195
-0.21
-0.215
-0.245
-0.275
-0.285
-0.305
-0.325
-0.34
-0.35
-0.38
-0.405
-0.4
-0.385
-0.395
-0.41
-0.435
-0.44
-0.44
-0.43
-0.43
-0.435
-0.435
-0.435
-0.435
-0.43
-0.44
-0.445
-0.46
-0.445
-0.435
-0.415
-0.43
-0.44
-0.445
-0.435
-0.435
-0.42
-0.415
-0.415
-0.415
-0.41
-0.41
-0.4
-0.405
-0.41
-0.425
-0.405
-0.39
-0.395
-0.405
-0.415
-0.435
-0.42
-0.41
-0.39
-0.395
-0.41
-0.42
-0.43
-0.415
-0.41
-0.42
-0.415
-0.415
-0.405
-0.38
-0.365
-0.365
-0.36
-0.345
-0.325
-0.3
-0.29
-0.265
-0.26
-0.255
-0.24
-0.195
-0.18
-0.17
-0.165
-0.165
-0.16
-0.17
-0.175
-0.2
-0.23
-0.255
-0.275
-0.295
-0.315
-0.35
-0.385
-0.415
-0.435
-0.44
-0.43
-0.435
-0.47
-0.475
-0.485
-0.475
-0.48
-0.47
-0.48
-0.495
-0.48
-0.46
-0.455
-0.46
-0.475
-0.49
-0.475
-0.45
-0.435
-0.445
-0.44
-0.43
-0.415
-0.37
-0.285
-0.185
-0.03
0.2
0.495
0.8
1.03
1.125
1.01
0.675
0.215
-0.235
-0.545
-0.72
-0.745
-0.715
-0.695
-0.72
-0.755
-0.795
-0.84
-0.87
-0.88
-0.865
-0.84
-0.86
-0.885
-0.91
-0.9
-0.885
-0.845
-0.8
-0.77
-0.74
-0.695
-0.63
-0.545
-0.47
-0.425
-0.395
-0.365
-0.355
-0.34
-0.335
-0.33
-0.31
-0.295
-0.265
-0.26
-0.26
-0.28
-0.27
-0.265
-0.23
-0.22
-0.205
-0.22
-0.22
-0.21
-0.195
-0.19
-0.175
-0.165
-0.16
-0.11
-0.105
-0.095
-0.085
-0.095
-0.095
-0.07
-0.045
0
0.02
0.015
0.025
0.035
0.06
0.095
0.105
0.1
0.105
0.135
0.16
0.17
0.175
0.165
0.15
0.16
0.19
0.205
0.19
0.165
0.12
0.11
0.09
0.085
0.06
0.02
0
-0.015
-0.035
-0.05
-0.08
-0.12
-0.14
-0.15
-0.15
-0.15
-0.17
-0.205
-0.215
-0.22
-0.22
-0.23
-0.235
-0.245
-0.255
-0.25
-0.24
-0.245
-0.26
-0.265
-0.27
-0.255
-0.245
-0.215
-0.23
-0.235
-0.245
-0.24
-0.235
-0.215
-0.22
-0.22
-0.23
-0.21
-0.205
-0.195
-0.205
-0.21
-0.21
-0.2
-0.175
-0.165
-0.175
-0.175
-0.195
-0.195
-0.185
-0.17
-0.16
-0.17
-0.185
-0.175
-0.155
-0.17
-0.17
-0.17
-0.175
-0.17
-0.155
-0.15
-0.16
-0.175
-0.18
-0.185
-0.175
-0.13
-0.13
-0.14
-0.145
-0.15
-0.135
-0.135
-0.145
-0.13
-0.12
-0.08
-0.04
-0.02
-0.02
-0.03
-0.035
0
0.04
0.085
0.105
0.105
0.1
0.11
0.125
0.135
0.115
0.11
0.095
0.085
0.075
0.045
0.005
-0.045
-0.085
-0.11
-0.11
-0.1
-0.12
-0.14
-0.15
-0.175
-0.17
-0.16
-0.17
-0.185
-0.195
-0.205
-0.19
-0.185
-0.185
-0.195
-0.215
-0.205
-0.19
-0.16
-0.16
-0.16
-0.175
-0.17
-0.14
-0.105
-0.105
-0.055
0.02
0.16
0.34
0.555
0.79
1.02
1.24
1.405
1.405
1.17
0.695
0.18
-0.225
-0.455
-0.48
-0.41
-0.39
-0.41
-0.465
-0.5
-0.545
-0.555
-0.58
-0.575
-0.575
-0.57
-0.555
-0.55
-0.57
-0.595
-0.59
-0.55
-0.52
-0.46
-0.41
-0.365
-0.285
-0.23
-0.155
-0.11
-0.08
-0.08
-0.08
-0.055
-0.03
-0.02
-0.01
-0.015
-0.02
-0.015
0.015
0.035
0.045
0.035
0.035
0.055
0.04
0.05
0.035
0.045
0.04
0.055
0.09
0.11
0.11
0.1
0.1
0.11
0.14
0.16
0.18
0.17
0.17
0.18
0.2
0.23
0.24
0.255
0.265
0.28
0.305
0.32
0.32
0.33
0.32
0.325
0.36
0.38
0.375
0.365
0.355
0.335
0.335
0.345
0.315
0.295
0.28
0.26
0.245
0.24
0.2
0.17
0.13
0.115
0.105
0.1
0.08
0.07
0.03
-0.005
-0.02
-0.01
-0.025
-0.055
-0.075
-0.07
-0.075
-0.075
-0.105
-0.13
-0.14
-0.12
-0.115
-0.12
-0.115
-0.15
-0.155
-0.15
-0.145
-0.13
-0.145
-0.15
-0.145
-0.135
-0.12
-0.115
-0.12
-0.14
-0.145
-0.135
-0.12
-0.105
-0.115
-0.125
-0.14
-0.135
-0.13
-0.115
-0.115
-0.135
-0.13
-0.13
-0.12
-0.105
-0.11
-0.125
-0.145
-0.125
-0.115
-0.105
-0.11
-0.14
-0.155
-0.16
-0.145
-0.13
-0.14
-0.15
-0.165
-0.155
-0.14
-0.13
-0.145
-0.165
-0.175
-0.17
-0.15
-0.135
-0.145
-0.145
-0.15
-0.15
-0.13
-0.115
-0.115
-0.09
-0.085
-0.065
-0.045
-0.015
-0.005
0.005
0
0.035
0.055
0.095
0.12
0.095
0.095
0.1
0.105
0.105
0.09
0.07
0.05
0.03
-0.005
-0.05
-0.09
-0.125
-0.145
-0.16
-0.17
-0.165
-0.175
-0.19
-0.2
-0.215
-0.215
-0.21
-0.23
-0.26
-0.275
-0.255
-0.245
-0.225
-0.24
-0.26
-0.275
-0.28
-0.27
-0.25
-0.255
-0.255
-0.255
-0.24
-0.215
-0.195
-0.205
-0.19
-0.155
-0.075
0.03
0.195
0.37
0.58
0.805
1.05
1.27
1.36
1.26
0.96
0.53
0.075
-0.275
-0.465
-0.5
-0.485
-0.46
-0.48
-0.515
-0.54
-0.57
-0.625
-0.67
-0.67
-0.655
-0.645
-0.65
-0.67
-0.68
-0.69
-0.675
-0.655
-0.62
-0.595
-0.555
-0.52
-0.465
-0.405
-0.335
-0.28
-0.23
-0.195
-0.175
-0.155
-0.15
-0.17
-0.145
-0.135
-0.105
-0.085
-0.105
-0.115
-0.14
-0.125
-0.095
-0.06
-0.08
-0.08
-0.08
-0.075
-0.055
-0.05
-0.045
-0.04
-0.04
-0.03
-0.01
0.015
0.01
0
-0.02
0
0.03
0.05
0.075
0.07
0.06
0.065
0.08
0.115
0.105
0.115
0.115
0.135
0.185
0.205
0.21
0.195
0.19
0.195
0.215
0.23
0.24
0.23
0.22
0.21
0.205
0.2
0.18
0.135
0.115
0.095
0.08
0.075
0.035
0.005
-0.03
-0.055
-0.055
-0.065
-0.085
-0.11
-0.155
-0.17
-0.17
-0.165
-0.175
-0.205
-0.225
-0.23
-0.23
-0.23
-0.255
-0.28
-0.285
-0.28
-0.255
-0.25
-0.255
-0.265
-0.275
-0.28
-0.26
-0.255
-0.265
-0.28
-0.29
-0.275
-0.255
-0.25
-0.26
-0.285
-0.29
-0.295
-0.29
-0.28
-0.27
-0.27
-0.29
-0.285
-0.28
-0.265
-0.285
-0.295
-0.3
-0.295
-0.27
-0.27
-0.265
-0.285
-0.295
-0.305
-0.3
-0.285
-0.285
-0.295
-0.315
-0.315
-0.295
-0.3
-0.3
-0.335
-0.335
-0.31
-0.305
-0.285
-0.3
-0.315
-0.335
-0.34
-0.32
-0.335
-0.325
-0.335
-0.335
-0.32
-0.31
-0.285
-0.275
-0.265
-0.255
-0.25
-0.23
-0.195
-0.205
-0.18
-0.18
-0.14
-0.13
-0.1
-0.095
-0.115
-0.11
-0.095
-0.09
-0.085
-0.09
-0.115
-0.15
-0.19
-0.19
-0.23
-0.275
-0.305
-0.35
-0.35
-0.355
-0.365
-0.375
-0.4
-0.43
-0.415
-0.4
-0.395
-0.415
-0.44
-0.45
-0.45
-0.445
-0.435
-0.445
-0.455
-0.46
-0.445
-0.445
-0.455
-0.455
-0.46
-0.465
-0.45
-0.435
-0.41
-0.4
-0.405
-0.415
-0.375
-0.325
-0.25
-0.155
-0.015
0.175
0.42
0.665
0.885
1.025
1.07
0.935
0.625
0.24
-0.145
-0.445
-0.645
-0.71
-0.68
-0.65
-0.655
-0.7
-0.775
-0.815
-0.83
-0.835
-0.835
-0.84
-0.85
-0.855
-0.88
-0.865
-0.87
-0.895
-0.925
-0.925
-0.885
-0.84
-0.785
-0.765
-0.745
-0.705
-0.66
-0.565
-0.505
-0.445
-0.435
-0.425
-0.42
-0.4
-0.38
-0.375
-0.375
-0.375
-0.36
-0.335
-0.33
-0.325
-0.34
-0.355
-0.34
-0.32
-0.305
-0.31
-0.315
-0.3
-0.29
-0.3
-0.275
-0.275
-0.285
-0.29
-0.275
-0.25
-0.225
-0.21
-0.205
-0.225
-0.22
-0.195
-0.2
-0.185
-0.17
-0.16
-0.15
-0.12
-0.095
-0.115
-0.125
-0.12
-0.09
-0.05
-0.025
-0.015
-0.02
-0.015
-0.005
0.025
0.04
-0.005
0.01
-0.005
-0.005
0.01
0.015
-0.005
-0.07
-0.085
-0.11
-0.12
-0.11
-0.14
-0.18
-0.215
-0.23
-0.235
-0.235
-0.27
-0.31
-0.325
-0.345
-0.34
-0.34
-0.355
-0.375
-0.425
-0.43
-0.43
-0.425
-0.44
-0.45
-0.46
-0.465
-0.445
-0.445
-0.47
-0.5
-0.505
-0.485
-0.475
-0.45
-0.445
-0.455
-0.475
-0.49
-0.475
-0.455
-0.46
-0.475
-0.48
-0.47
-0.45
-0.455
-0.45
-0.48
-0.505
-0.47
-0.455
-0.435
-0.445
-0.455
-0.47
-0.475
-0.475
-0.465
-0.47
-0.485
-0.495
-0.475
-0.455
-0.445
-0.46
-0.49
-0.495
-0.5
-0.475
-0.475
-0.48
-0.49
-0.495
-0.49
-0.495
-0.49
-0.5
-0.515
-0.515
-0.485
-0.485
-0.45
-0.45
-0.45
-0.46
-0.445
-0.41
-0.38
-0.38
-0.375
-0.375
-0.345
-0.315
-0.29
-0.29
-0.265
-0.255
-0.255
-0.235
-0.2
-0.215
-0.215
-0.24
-0.26
-0.27
-0.28
-0.335
-0.375
-0.41
-0.435
-0.435
-0.435
-0.46
-0.51
-0.5
-0.51
-0.495
-0.49
-0.505
-0.52
-0.535
-0.545
-0.535
-0.53
-0.535
-0.53
-0.535
-0.525
-0.505
-0.505
-0.52
-0.53
-0.525
-0.51
-0.49
-0.465
-0.465
-0.47
-0.455
-0.44
-0.41
-0.35
-0.28
-0.155
0.025
0.26
0.535
0.815
1.01
1.105
1.03
0.755
0.36
-0.04
-0.4
-0.64
-0.72
-0.695
-0.65
-0.665
-0.715
-0.76
-0.79
-0.82
-0.825
-0.835
-0.83
-0.845
-0.855
-0.875
-0.88
-0.88
-0.885
-0.895
-0.885
-0.83
-0.765
-0.72
-0.695
-0.67
-0.64
-0.555
-0.49
-0.41
-0.365
-0.355
-0.355
-0.345
-0.315
-0.29
-0.29
-0.275
-0.285
-0.27
-0.24
-0.225
-0.215
-0.23
-0.245
-0.24
-0.2
-0.175
-0.175
-0.17
-0.185
-0.16
-0.155
-0.135
-0.145
-0.155
-0.155
-0.145
-0.105
-0.09
-0.08
-0.09
-0.09
-0.075
-0.045
-0.02
-0.005
0.005
0.015
0.03
0.05
0.08
0.085
0.09
0.095
0.115
0.135
0.175
0.18
0.18
0.185
0.175
0.19
0.215
0.205
0.2
0.19
0.195
0.205
0.2
0.16
0.135
0.11
0.09
0.085
0.08
0.055
0.04
-0.005
-0.02
-0.02
-0.035
-0.065
-0.085
-0.11
-0.11
-0.115
-0.115
-0.135
-0.155
-0.19
-0.215
-0.2
-0.195
-0.22
-0.215
-0.23
-0.22
-0.21
-0.2
-0.235
-0.24
-0.265
-0.27
-0.255
-0.23
-0.23
-0.225
-0.23
-0.225
-0.225
-0.225
-0.225
-0.235
-0.24
-0.225
-0.225
-0.2
-0.21
-0.215
-0.22
-0.245
-0.225
-0.205
-0.2
-0.215
-0.22
-0.21
-0.2
-0.19
-0.2
-0.21
-0.21
-0.23
-0.215
-0.185
-0.19
-0.205
-0.2
-0.21
-0.195
-0.195
-0.2
-0.225
-0.225
-0.21
-0.195
-0.195
-0.21
-0.23
-0.255
-0.245
-0.235
-0.21
-0.22
-0.215
-0.215
-0.215
-0.22
-0.205
-0.22
-0.225
-0.24
-0.245
-0.22
-0.205
-0.215
-0.2
-0.195
-0.19
-0.15
-0.125
-0.12
-0.11
-0.1
-0.09
-0.045
-0.03
-0.02
-0.035
-0.02
0.015
0.04
0.055
0.065
0.055
0.035
0.01
0.03
0.015
-0.015
-0.03
-0.07
-0.11
-0.12
-0.135
-0.185
-0.22
-0.225
-0.235
-0.23
-0.235
-0.225
-0.245
-0.27
-0.275
-0.27
-0.265
-0.275
-0.305
-0.31
-0.305
-0.285
-0.26
-0.27
-0.29
-0.3
-0.31
-0.295
-0.265
-0.26
-0.265
-0.275
-0.26
-0.245
-0.215
-0.2
-0.17
-0.1
0.01
0.175
0.395
0.655
0.9
1.095
1.255
1.3
1.145
0.8
0.345
-0.07
-0.395
-0.535
-0.55
-0.51
-0.515
-0.54
-0.585
-0.605
-0.635
-0.655
-0.685
-0.695
-0.69
-0.68
-0.68
-0.7
-0.72
-0.735
-0.735
-0.69
-0.645
-0.61
-0.575
-0.56
-0.5
-0.435
-0.365
-0.295
-0.245
-0.225
-0.21
-0.2
-0.175
-0.175
-0.18
-0.18
-0.16
-0.12
-0.105
-0.11
-0.135
-0.135
-0.12
-0.105
-0.08
-0.08
-0.075
-0.09
-0.07
-0.06
-0.065
-0.06
-0.065
-0.07
-0.045
-0.015
0.01
0
0.005
-0.005
0
0.03
0.035
0.055
0.045
0.07
0.095
0.115
0.13
0.14
0.14
0.15
0.17
0.19
0.215
0.22
0.225
0.23
0.225
0.245
0.255
0.255
0.245
0.235
0.235
0.235
0.245
0.195
0.17
0.145
0.135
0.125
0.12
0.1
0.06
0.035
-0.005
-0.01
-0.025
-0.04
-0.08
-0.105
-0.13
-0.125
-0.14
-0.17
-0.19
-0.205
-0.21
-0.2
-0.195
-0.23
-0.24
-0.25
-0.26
-0.26
-0.26
-0.26
-0.255
-0.265
-0.26
-0.25
-0.23
-0.275
-0.29
-0.3
-0.28
-0.27
-0.25
-0.24
-0.25
-0.265
-0.26
-0.26
-0.25
-0.265
-0.265
-0.26
-0.25
-0.235
-0.23
-0.235
-0.25
-0.26
-0.265
-0.255
-0.235
-0.235
-0.245
-0.25
-0.26
-0.245
-0.24
-0.26
-0.265
-0.265
-0.265
-0.255
-0.23
-0.23
-0.245
-0.25
-0.265
-0.26
-0.25
-0.245
-0.25
-0.26
-0.25
-0.25
-0.25
-0.26
-0.265
-0.28
-0.275
-0.275
-0.24
-0.25
-0.26
-0.285
-0.275
-0.27
-0.245
-0.225
-0.225
-0.21
-0.19
-0.175
-0.135
-0.13
-0.145
-0.135
-0.11
-0.075
-0.04
-0.015
-0.01
-0.02
-0.015
-0.015
-0.005
-0.025
-0.025
-0.05
-0.07
-0.08
-0.1
-0.14
-0.195
-0.235
-0.255
-0.25
-0.27
-0.28
-0.285
-0.29
-0.32
-0.305
-0.305
-0.32
-0.35
-0.355
-0.36
-0.34
-0.325
-0.345
-0.355
-0.375
-0.37
-0.365
-0.33
-0.33
-0.325
-0.325
-0.32
-0.3
-0.285
-0.315
-0.32
-0.31
-0.255
-0.175
-0.07
0.05
0.235
0.45
0.715
0.975
1.175
1.25
1.13
0.805
0.36
-0.09
-0.41
-0.57
-0.585
-0.565
-0.56
-0.57
-0.59
-0.64
-0.695
-0.73
-0.755
-0.75
-0.74
-0.74
-0.76
-0.77
-0.79
-0.78
-0.77
-0.75
-0.725
-0.705
-0.67
-0.595
-0.53
-0.475
-0.43
-0.375
-0.32
-0.29
-0.255
-0.25
-0.25
-0.24
-0.225
-0.2
-0.185
-0.21
-0.225
-0.205
-0.215
-0.195
-0.16
-0.15
-0.16
-0.175
-0.175
-0.17
-0.16
-0.15
-0.155
-0.16
-0.145
-0.12
-0.105
-0.095
-0.105
-0.12
-0.105
-0.075
-0.045
-0.05
-0.04
-0.04
-0.025
-0.02
0
0
0.02
0.03
0.05
0.085
0.105
0.1
0.09
0.08
0.09
0.125
0.14
0.145
0.145
0.14
0.135
0.13
0.135
0.1
0.075
0.055
0.035
0.04
0.02
-0.01
-0.045
-0.065
-0.09
-0.105
-0.11
-0.115
-0.145
-0.17
-0.195
-0.21
-0.24
-0.24
-0.27
-0.305
-0.29
-0.29
-0.285
-0.305
-0.335
-0.34
-0.345
-0.335
-0.335
-0.345
-0.35
-0.365
-0.365
-0.35
-0.345
-0.35
-0.37
-0.375
-0.365
-0.355
-0.34
-0.345
-0.365
-0.38
-0.375
-0.365
-0.355
-0.355
-0.37
-0.36
-0.35
-0.345
-0.345
-0.36
-0.385
-0.37
-0.37
-0.345
-0.325
-0.33
-0.35
-0.38
-0.385
-0.38
-0.36
-0.365
-0.375
-0.38
-0.385
-0.375
-0.365
-0.39
-0.4
-0.425
-0.405
-0.39
-0.38
-0.39
-0.41
-0.41
-0.405
-0.405
-0.385
-0.395
-0.395
-0.395
-0.395
-0.385
-0.375
-0.39
-0.39
-0.375
-0.335
-0.325
-0.285
-0.275
-0.285
-0.3
-0.26
-0.23
-0.195
-0.18
-0.165
-0.16
-0.15
-0.16
-0.16
-0.175
-0.2
-0.21
-0.215
-0.23
-0.245
-0.295
-0.35
-0.4
-0.425
-0.425
-0.42
-0.425
-0.445
-0.455
-0.47
-0.48
-0.475
-0.495
-0.5
-0.505
-0.49
-0.485
-0.5
-0.505
-0.51
-0.515
-0.51
-0.485
-0.46
-0.465
-0.465
-0.48
-0.465
-0.46
-0.445
-0.415
-0.385
-0.31
-0.175
0.04
0.31
0.595
0.855
1
1.015
0.84
0.445
-0.055
-0.485
-0.73
-0.775
-0.715
-0.68
-0.715
-0.775
-0.825
-0.855
-0.9
-0.905
-0.905
-0.9
-0.915
-0.92
-0.935
-0.93
-0.94
-0.955
-0.95
-0.91
-0.82
-0.78
-0.72
-0.655
-0.62
-0.555
-0.485
-0.445
-0.425
-0.43
-0.41
-0.395
-0.37
-0.35
-0.355
-0.37
-0.38
-0.365
-0.345
-0.32
-0.31
-0.305
-0.325
-0.315
-0.295
-0.29
-0.29
-0.27
-0.27
-0.265
-0.24
-0.225
-0.23
-0.225
-0.225
-0.22
-0.18
-0.15
-0.15
-0.13
-0.14
-0.13
-0.11
-0.085
-0.065
-0.045
-0.045
-0.015
0
0.02
0.02
0.02
0.02
0.04
0.045
0.065
0.075
0.07
0.035
0.035
0.03
0.035
-0.005
-0.02
-0.05
-0.06
-0.085
-0.12
-0.125
-0.17
-0.205
-0.22
-0.22
-0.235
-0.245
-0.275
-0.305
-0.315
-0.33
-0.33
-0.34
-0.36
-0.365
-0.375
-0.375
-0.365
-0.385
-0.41
-0.405
-0.395
-0.39
-0.355
-0.39
-0.37
-0.39
-0.395
-0.38
-0.36
-0.355
-0.365
-0.37
-0.365
-0.345
-0.35
-0.345
-0.355
-0.36
-0.35
-0.33
-0.315
-0.325
-0.35
-0.36
-0.355
-0.345
-0.32
-0.32
-0.33
-0.35
-0.365
-0.35
-0.35
-0.35
-0.375
-0.365
-0.355
-0.335
-0.335
-0.34
-0.36
-0.38
-0.37
-0.355
-0.325
-0.345
-0.345
-0.36
-0.365
-0.35
-0.35
-0.35
-0.35
-0.345
-0.345
-0.33
-0.305
-0.305
-0.3
-0.285
-0.255
-0.23
-0.21
-0.205
-0.2
-0.21
-0.18
-0.155
-0.095
-0.08
-0.08
-0.085
-0.085
-0.07
-0.07
-0.085
-0.125
-0.145
-0.17
-0.19
-0.22
-0.26
-0.29
-0.325
-0.33
-0.335
-0.335
-0.345
-0.36
-0.375
-0.375
-0.37
-0.37
-0.385
-0.415
-0.43
-0.42
-0.415
-0.38
-0.38
-0.41
-0.405
-0.4
-0.385
-0.385
-0.375
-0.385
-0.375
-0.355
-0.335
-0.285
-0.27
-0.2
-0.105
0.065
0.345
0.63
0.905
1.115
1.245
1.225
0.985
0.57
0.06
-0.36
-0.625
-0.675
-0.63
-0.585
-0.605
-0.68
-0.725
-0.76
-0.76
-0.76
-0.77
-0.77
-0.78
-0.795
-0.795
-0.8
-0.815
-0.815
-0.8
-0.735
-0.685
-0.635
-0.585
-0.525
-0.465
-0.385
-0.315
-0.245
-0.245
-0.24
-0.235
-0.23
-0.2
-0.165
-0.16
-0.15
-0.18
-0.165
-0.14
-0.12
-0.125
-0.135
-0.125
-0.115
-0.09
-0.07
-0.07
-0.095
-0.08
-0.065
-0.045
-0.025
-0.005
0
0.005
0.025
0.035
0.055
0.045
0.055
0.075
0.105
0.125
0.15
0.16
0.155
0.155
0.19
0.21
0.26
0.265
0.265
0.255
0.27
0.295
0.31
0.295
0.275
0.275
0.27
0.275
0.285
0.245
0.205
0.165
0.155
0.145
0.145
0.13
0.1
0.05
0.045
0.02
0.005
-0.03
-0.045
-0.065
-0.08
-0.09
-0.09
-0.11
-0.135
-0.165
-0.17
-0.16
-0.15
-0.165
-0.18
-0.205
-0.22
-0.195
-0.21
-0.21
-0.225
-0.235
-0.225
-0.195
-0.19
-0.195
-0.215
-0.215
-0.215
-0.195
-0.175
-0.165
-0.18
-0.205
-0.195
-0.195
-0.175
-0.185
-0.18
-0.19
-0.2
-0.18
-0.17
-0.175
-0.195
-0.195
-0.2
-0.175
-0.16
-0.16
-0.165
-0.185
-0.18
-0.19
-0.195
-0.2
-0.215
-0.22
-0.195
-0.185
-0.175
-0.2
-0.23
-0.22
-0.23
-0.21
-0.19
-0.19
-0.205
-0.22
-0.21
-0.215
-0.2
-0.2
-0.205
-0.225
-0.22
-0.185
-0.165
-0.16
-0.155
-0.155
-0.135
-0.11
-0.065
-0.055
-0.05
-0.05
-0.03
0.005
0.04
0.055
0.04
0.05
0.055
0.045
0.065
0.035
0.01
-0.035
-0.045
-0.07
-0.085
-0.125
-0.16
-0.19
-0.205
-0.215
-0.24
-0.245
-0.255
-0.285
-0.28
-0.27
-0.275
-0.285
-0.3
-0.33
-0.335
-0.305
-0.3
-0.285
-0.3
-0.305
-0.315
-0.31
-0.285
-0.285
-0.31
-0.295
-0.295
-0.26
-0.235
-0.22
-0.2
-0.16
-0.065
0.08
0.295
0.52
0.76
0.995
1.2
1.32
1.23
0.91
0.425
-0.04
-0.4
-0.56
-0.55
-0.5
-0.51
-0.555
-0.605
-0.63
-0.655
-0.685
-0.705
-0.71
-0.71
-0.715
-0.715
-0.745
-0.76
-0.775
-0.75
-0.7
-0.615
-0.585
-0.57
-0.555
-0.495
-0.415
-0.325
-0.275
-0.255
-0.245
-0.225
-0.215
-0.195
-0.185
-0.195
-0.18
-0.165
-0.145
-0.125
-0.12
-0.145
-0.16
-0.145
-0.125
-0.1
-0.095
-0.105
-0.095
-0.095
-0.075
-0.07
-0.065
-0.07
-0.065
-0.05
-0.02
-0.015
-0.005
-0.01
-0.01
-0.005
0.025
0.055
0.08
0.08
0.075
0.085
0.11
0.15
0.155
0.13
0.145
0.185
0.21
0.24
0.225
0.22
0.22
0.225
0.24
0.255
0.255
0.235
0.215
0.17
0.185
0.165
0.135
0.1
0.065
0.05
0.05
0.05
0.015
-0.02
-0.055
-0.07
-0.085
-0.085
-0.09
-0.13
-0.14
-0.15
-0.165
-0.17
-0.19
-0.21
-0.235
-0.22
-0.215
-0.21
-0.215
-0.25
-0.28
-0.28
-0.275
-0.24
-0.25
-0.255
-0.255
-0.25
-0.245
-0.22
-0.225
-0.235
-0.23
-0.215
-0.2
-0.185
-0.19
-0.195
-0.215
-0.215
-0.2
-0.18
-0.175
-0.19
-0.19
-0.2
-0.18
-0.155
-0.17
-0.18
-0.195
-0.17
-0.16
-0.155
-0.17
-0.18
-0.185
-0.185
-0.19
-0.17
-0.17
-0.165
-0.18
-0.2
-0.19
-0.185
-0.185
-0.205
-0.22
-0.22
-0.22
-0.185
-0.19
-0.205
-0.23
-0.215
-0.205
-0.195
-0.19
-0.185
-0.165
-0.15
-0.125
-0.105
-0.085
-0.09
-0.105
-0.07
-0.04
-0.005
0
0.02
0.02
0.035
0.045
0.065
0.065
0.045
0.03
0.015
-0.005
-0.025
-0.08
-0.145
-0.195
-0.21
-0.2
-0.2
-0.245
-0.27
-0.28
-0.285
-0.28
-0.275
-0.31
-0.31
-0.32
-0.335
-0.315
-0.315
-0.325
-0.335
-0.345
-0.325
-0.305
-0.305
-0.32
-0.32
-0.32
-0.31
-0.295
-0.265
-0.25
-0.25
-0.23
-0.155
-0.03
0.12
0.375
0.62
0.885
1.12
1.265
1.255
1.01
0.585
0.105
-0.29
-0.49
-0.525
-0.475
-0.455
-0.505
-0.55
-0.605
-0.645
-0.665
-0.67
-0.67
-0.66
-0.655
-0.68
-0.72
-0.765
-0.765
-0.75
-0.69
-0.635
-0.59
-0.56
-0.53
-0.49
-0.41
-0.325
-0.27
-0.25
-0.23
-0.205
-0.19
-0.17
-0.17
-0.165
-0.17
-0.16
-0.145
-0.125
-0.105
-0.1
-0.125
-0.135
-0.12
-0.1
-0.1
-0.1
-0.095
-0.09
-0.08
-0.065
-0.075
-0.085
-0.09
-0.07
-0.055
-0.015
-0.015
-0.035
-0.04
-0.035
-0.005
0.025
0.03
0.025
0.05
0.07
0.09
0.115
0.115
0.12
0.115
0.14
0.17
0.195
0.205
0.195
0.195
0.185
0.2
0.21
0.2
0.18
0.16
0.145
0.12
0.125
0.09
0.06
0.03
0.01
-0.005
0
-0.025
-0.065
-0.11
-0.14
-0.15
-0.14
-0.155
-0.175
-0.195
-0.22
-0.225
-0.23
-0.26
-0.285
-0.295
-0.3
-0.285
-0.265
-0.285
-0.305
-0.32
-0.315
-0.315
-0.295
-0.295
-0.3
-0.305
-0.3
-0.29
-0.285
-0.31
-0.31
-0.32
-0.315
-0.31
-0.285
-0.29
-0.31
-0.315
-0.3
-0.31
-0.27
-0.295
-0.285
-0.305
-0.28
-0.295
-0.285
-0.285
-0.295
-0.3
-0.31
-0.29
-0.285
-0.29
-0.31
-0.325
-0.315
-0.31
-0.29
-0.295
-0.315
-0.32
-0.31
-0.295
-0.28
-0.295
-0.305
-0.325
-0.315
-0.295
-0.28
-0.275
-0.275
-0.27
-0.255
-0.225
-0.215
-0.21
-0.215
-0.21
-0.18
-0.15
-0.12
-0.09
-0.11
-0.09
-0.07
-0.05
-0.04
-0.03
-0.04
-0.055
-0.06
-0.065
-0.085
-0.125
-0.175
-0.23
-0.245
-0.255
-0.245
-0.255
-0.295
-0.32
-0.36
-0.36
-0.35
-0.355
-0.37
-0.385
-0.38
-0.355
-0.36
-0.39
-0.395
-0.41
-0.43
-0.4
-0.38
-0.385
-0.37
-0.395
-0.385
-0.365
-0.35
-0.37
-0.375
-0.36
-0.35
-0.33
-0.275
-0.23
-0.14
0.005
0.235
0.51
0.795
1.025
1.16
1.135
0.89
0.49
0.04
-0.37
-0.63
-0.68
-0.625
-0.58
-0.555
-0.62
-0.69
-0.735
-0.765
-0.765
-0.765
-0.765
-0.785
-0.795
-0.815
-0.825
-0.815
-0.84
-0.845
-0.825
-0.775
-0.7
-0.65
-0.61
-0.61
-0.565
-0.5
-0.43
-0.345
-0.315
-0.295
-0.3
-0.29
-0.275
-0.25
-0.245
-0.245
-0.24
-0.22
-0.18
-0.165
-0.175
-0.205
-0.2
-0.195
-0.175
-0.14
-0.145
-0.15
-0.15
-0.145
-0.14
-0.12
-0.13
-0.105
-0.115
-0.085
-0.065
-0.05
-0.035
-0.04
-0.05
-0.03
0.01
0.05
0.05
0.055
0.05
0.06
0.085
0.11
0.13
0.135
0.15
0.155
0.195
0.21
0.21
0.2
0.18
0.165
0.185
0.19
0.17
0.14
0.125
0.08
0.08
0.06
0.035
0.005
-0.01
-0.015
-0.035
-0.045
-0.075
-0.11
-0.15
-0.165
-0.16
-0.15
-0.175
-0.19
-0.22
-0.225
-0.235
-0.235
-0.25
-0.265
-0.275
-0.28
-0.255
-0.25
-0.265
-0.275
-0.29
-0.275
-0.255
-0.25
-0.245
-0.25
-0.25
-0.255
-0.24
-0.235
-0.235
-0.255
-0.255
-0.245
-0.225
-0.205
-0.21
-0.225
-0.255
-0.245
-0.245
-0.225
-0.22
-0.215
-0.23
-0.22
-0.235
-0.21
-0.215
-0.235
-0.23
-0.22
-0.21
-0.2
-0.19
-0.21
-0.23
-0.23
-0.21
-0.19
-0.19
-0.205
-0.205
-0.215
-0.21
-0.195
-0.21
-0.215
-0.23
-0.205
-0.19
-0.17
-0.15
-0.155
-0.16
-0.145
-0.105
-0.075
-0.06
-0.05
-0.05
-0.02
0.005
0.035
0.06
0.06
0.07
0.055
0.075
0.105
0.095
0.07
0.03
0.015
0.005
-0.015
-0.06
-0.105
-0.145
-0.165
-0.15
-0.155
-0.165
-0.195
-0.215
-0.225
-0.205
-0.19
-0.21
-0.22
-0.23
-0.24
-0.23
-0.225
-0.23
-0.25
-0.25
-0.245
-0.215
-0.195
-0.195
-0.205
-0.225
-0.2
-0.185
-0.175
-0.155
-0.155
-0.15
-0.12
-0.075
-0.005
0.1
0.24
0.44
0.675
0.955
1.2
1.365
1.39
1.24
0.89
0.435
0.035
-0.285
-0.45
-0.46
-0.41
-0.38
-0.4
-0.445
-0.5
-0.545
-0.57
-0.575
-0.565
-0.555
-0.575
-0.585
-0.6
-0.615
-0.61
-0.61
-0.62
-0.595
-0.545
-0.5
-0.445
-0.425
-0.385
-0.33
-0.265
-0.185
-0.115
-0.085
-0.085
-0.08
-0.055
-0.02
0.005
0
0
-0.01
-0.005
0.03
0.05
0.035
0.02
0.015
0.005
0.035
0.05
0.07
0.07
0.075
0.08
0.085
0.1
0.09
0.095
0.095
0.12
0.135
0.16
0.155
0.165
0.155
0.165
0.185
0.2
0.21
0.215
0.23
0.245
0.285
0.305
0.325
0.295
0.3
0.32
0.355
0.39
0.385
0.39
0.37
0.385
0.405
0.415
0.395
0.385
0.375
0.385
0.375
0.385
0.355
0.3
0.275
0.245
0.25
0.24
0.225
0.18
0.16
0.135
0.115
0.115
0.085
0.06
0.025
0.02
0.035
0.04
0
-0.025
-0.04
-0.06
-0.06
-0.045
-0.07
-0.075
-0.08
-0.085
-0.075
-0.08
-0.095
-0.11
-0.115
-0.12
-0.095
-0.075
-0.08
-0.1
-0.115
-0.125
-0.1
-0.105
-0.1
-0.1
-0.105
-0.1
-0.085
-0.085
-0.085
-0.095
-0.105
-0.1
-0.095
-0.075
-0.07
-0.08
-0.095
-0.1
-0.085
-0.075
-0.08
-0.09
-0.12
-0.095
-0.09
-0.07
-0.075
-0.09
-0.115
-0.12
-0.11
-0.105
-0.1
-0.105
-0.13
-0.12
-0.125
-0.12
-0.125
-0.14
-0.14
-0.135
-0.115
-0.105
-0.115
-0.13
-0.14
-0.16
-0.13
-0.115
-0.105
-0.085
-0.08
-0.045
-0.025
-0.01
-0.005
-0.02
-0.005
0.02
0.055
0.095
0.11
0.12
0.125
0.12
0.14
0.145
0.135
0.12
0.1
0.09
0.095
0.09
0.03
-0.015
-0.08
-0.09
-0.085
-0.09
-0.095
-0.12
-0.16
-0.16
-0.17
-0.17
-0.19
-0.2
-0.205
-0.195
-0.19
-0.175
-0.205
-0.225
-0.24
-0.245
-0.24
-0.2
-0.185
-0.2
-0.205
-0.2
-0.205
-0.19
-0.175
-0.185
-0.175
-0.15
-0.12
-0.05
0.025
0.15
0.295
0.51
0.785
1.035
1.23
1.36
1.31
1.105
0.735
0.315
-0.085
-0.37
-0.495
-0.475
-0.41
-0.4
-0.43
-0.465
-0.535
-0.565
-0.585
-0.605
-0.63
-0.63
-0.63
-0.61
-0.6
-0.625
-0.635
-0.66
-0.66
-0.61
-0.55
-0.495
-0.45
-0.415
-0.36
-0.315
-0.225
-0.17
-0.12
-0.11
-0.11
-0.11
-0.065
-0.05
-0.055
-0.06
-0.07
-0.055
-0.04
-0.025
-0.015
-0.02
-0.025
-0.035
-0.005
-0.005
-0.01
-0.015
-0.035
-0.025
0.005
0.03
0.05
0.03
0.02
0.015
0.02
0.05
0.055
0.06
0.07
0.085
0.095
0.125
0.125
0.12
0.105
0.135
0.17
0.2
0.2
0.2
0.205
0.225
0.245
0.27
0.27
0.27
0.265
0.27
0.295
0.32
0.315
0.315
0.295
0.29
0.295
0.295
0.285
0.26
0.22
0.215
0.205
0.205
0.165
0.11
0.085
0.06
0.045
0.045
0.025
0
-0.045
-0.05
-0.06
-0.07
-0.1
-0.125
-0.14
-0.155
-0.14
-0.13
-0.17
-0.185
-0.21
-0.21
-0.205
-0.195
-0.21
-0.235
-0.24
-0.24
-0.235
-0.23
-0.24
-0.255
-0.28
-0.275
-0.25
-0.235
-0.24
-0.24
-0.265
-0.265
-0.265
-0.255
-0.26
-0.265
-0.27
-0.26
-0.26
-0.225
-0.24
-0.245
-0.28
-0.28
-0.265
-0.24
-0.245
-0.24
-0.28
-0.265
-0.25
-0.23
-0.25
-0.265
-0.265
-0.26
-0.26
-0.24
-0.25
-0.26
-0.28
-0.29
-0.295
-0.26
-0.28
-0.275
-0.275
-0.275
-0.28
-0.275
-0.285
-0.29
-0.31
-0.315
-0.285
-0.27
-0.27
-0.295
-0.32
-0.325
-0.315
-0.285
-0.285
-0.26
-0.255
-0.245
-0.2
-0.185
-0.18
-0.185
-0.19
-0.175
-0.13
-0.095
-0.07
-0.05
-0.04
-0.035
-0.04
-0.015
-0.03
-0.05
-0.05
-0.06
-0.065
-0.075
-0.12
-0.18
-0.245
-0.275
-0.255
-0.26
-0.27
-0.295
-0.33
-0.35
-0.345
-0.345
-0.355
-0.375
-0.385
-0.395
-0.375
-0.37
-0.385
-0.41
-0.425
-0.41
-0.4
-0.395
-0.375
-0.38
-0.385
-0.39
-0.38
-0.36
-0.365
-0.37
-0.355
-0.315
-0.245
-0.15
-0.025
0.135
0.33
0.585
0.825
1.03
1.115
1.045
0.785
0.365
-0.085
-0.45
-0.655
-0.69
-0.655
-0.63
-0.63
-0.665
-0.71
-0.775
-0.81
-0.85
-0.845
-0.815
-0.805
-0.81
-0.865
-0.87
-0.87
-0.875
-0.84
-0.815
-0.78
-0.705
-0.64
-0.57
-0.51
-0.465
-0.435
-0.405
-0.37
-0.345
-0.325
-0.32
-0.33
-0.305
-0.285
-0.27
-0.265
-0.27
-0.285
-0.27
-0.245
-0.23
-0.225
-0.24
-0.25
-0.235
-0.225
-0.205
-0.19
-0.2
-0.205
-0.195
-0.175
-0.16
-0.15
-0.15
-0.165
-0.13
-0.115
-0.09
-0.065
-0.07
-0.09
-0.08
-0.06
-0.025
-0.01
0
0.015
0.03
0.045
0.07
0.075
0.08
0.075
0.095
0.11
0.14
0.15
0.135
0.12
0.115
0.115
0.125
0.105
0.07
0.06
0.045
0.025
0.015
-0.005
-0.06
-0.1
-0.115
-0.115
-0.115
-0.135
-0.175
-0.21
-0.23
-0.235
-0.24
-0.24
-0.285
-0.29
-0.3
-0.3
-0.305
-0.315
-0.33
-0.36
-0.355
-0.35
-0.33
-0.335
-0.36
-0.36
-0.37
-0.365
-0.345
-0.365
-0.37
-0.365
-0.35
-0.34
-0.335
-0.34
-0.365
-0.37
-0.375
-0.365
-0.34
-0.355
-0.35
-0.36
-0.35
-0.35
-0.34
-0.355
-0.355
-0.365
-0.35
-0.325
-0.315
-0.31
-0.33
-0.36
-0.36
-0.345
-0.325
-0.33
-0.35
-0.335
-0.34
-0.33
-0.32
-0.34
-0.36
-0.37
-0.37
-0.35
-0.33
-0.335
-0.345
-0.355
-0.36
-0.335
-0.305
-0.295
-0.3
-0.285
-0.255
-0.23
-0.215
-0.21
-0.21
-0.2
-0.175
-0.15
-0.1
-0.085
-0.095
-0.1
-0.1
-0.085
-0.08
-0.085
-0.125
-0.13
-0.14
-0.15
-0.175
-0.21
-0.27
-0.31
-0.325
-0.34
-0.35
-0.355
-0.365
-0.385
-0.385
-0.38
-0.36
-0.395
-0.425
-0.42
-0.42
-0.43
-0.395
-0.4
-0.415
-0.44
-0.435
-0.42
-0.4
-0.4
-0.395
-0.4
-0.385
-0.375
-0.37
-0.36
-0.36
-0.365
-0.32
-0.26
-0.17
-0.06
0.09
0.275
0.505
0.755
0.98
1.155
1.2
1.075
0.76
0.315
-0.115
-0.515
-0.715
-0.74
-0.685
-0.64
-0.64
-0.68
-0.74
-0.795
-0.82
-0.835
-0.82
-0.815
-0.82
-0.825
-0.835
-0.835
-0.85
-0.845
-0.81
-0.78
-0.72
-0.665
-0.595
-0.535
-0.49
-0.42
-0.36
-0.315
-0.285
-0.265
-0.27
-0.26
-0.255
-0.215
-0.205
-0.19
-0.21
-0.225
-0.2
-0.175
-0.145
-0.15
-0.14
-0.16
-0.14
-0.14
-0.125
-0.12
-0.12
-0.115
-0.105
-0.075
-0.055
-0.045
-0.05
-0.06
-0.04
-0.025
0.005
0.015
0.03
0.04
0.045
0.075
0.09
0.115
0.12
0.135
0.16
0.19
0.215
0.205
0.195
0.2
0.235
0.25
0.28
0.275
0.255
0.24
0.23
0.225
0.2
0.19
0.16
0.125
0.105
0.09
0.065
0.015
-0.015
-0.05
-0.065
-0.075
-0.08
-0.095
-0.14
-0.18
-0.2
-0.2
-0.22
-0.235
-0.245
-0.27
-0.275
-0.26
-0.265
-0.29
-0.31
-0.34
-0.33
-0.31
-0.31
-0.295
-0.32
-0.345
-0.335
-0.32
-0.31
-0.315
-0.335
-0.335
-0.31
-0.31
-0.295
-0.3
-0.315
-0.33
-0.325
-0.32
-0.295
-0.28
-0.285
-0.305
-0.29
-0.295
-0.27
-0.275
-0.29
-0.3
-0.295
-0.28
-0.26
-0.27
-0.275
-0.285
-0.29
-0.28
-0.255
-0.255
-0.275
-0.28
-0.295
-0.305
-0.29
-0.3
-0.325
-0.305
-0.29
-0.285
-0.26
-0.285
-0.295
-0.315
-0.32
-0.305
-0.275
-0.265
-0.28
-0.305
-0.31
-0.28
-0.27
-0.29
-0.3
-0.295
-0.275
-0.26
-0.23
-0.215
-0.21
-0.205
-0.195
-0.18
-0.135
-0.135
-0.135
-0.125
-0.105
-0.08
-0.045
-0.045
-0.04
-0.05
-0.04
-0.02
-0.01
-0.02
-0.06
-0.095
-0.12
-0.15
-0.17
-0.2
-0.245
-0.27
-0.28
-0.285
-0.28
-0.29
-0.31
-0.325
-0.325
-0.32
-0.33
-0.34
-0.355
-0.38
-0.38
-0.36
-0.35
-0.335
-0.35
-0.35
-0.355
-0.345
-0.32
-0.34
-0.33
-0.345
-0.33
-0.295
-0.26
-0.24
-0.2
-0.15
-0.02
0.165
0.39
0.655
0.89
1.095
1.22
1.22
1
0.575
0.065
-0.345
-0.615
-0.675
-0.64
-0.605
-0.615
-0.67
-0.72
-0.735
-0.77
-0.77
-0.785
-0.775
-0.77
-0.77
-0.775
-0.81
-0.815
-0.83
-0.805
-0.745
-0.66
-0.615
-0.59
-0.55
-0.47
-0.385
-0.315
-0.27
-0.245
-0.235
-0.22
-0.2
-0.19
-0.185
-0.18
-0.18
-0.17
-0.15
-0.12
-0.105
-0.12
-0.135
-0.14
-0.12
-0.09
-0.09
-0.085
-0.085
-0.09
-0.07
-0.06
-0.065
-0.07
-0.065
-0.04
-0.015
0.02
0.025
0.025
0.02
0.02
0.04
0.055
0.085
0.09
0.115
0.13
0.18
0.2
0.21
0.21
0.205
0.215
0.265
0.29
0.31
0.3
0.295
0.295
0.31
0.325
0.32
0.295
0.285
0.28
0.265
0.255
0.215
0.185
0.13
0.11
0.1
0.1
0.07
0.025
-0.005
-0.035
-0.055
-0.06
-0.08
-0.115
-0.14
-0.15
-0.145
-0.15
-0.16
-0.195
-0.215
-0.235
-0.225
-0.215
-0.215
-0.23
-0.245
-0.245
-0.24
-0.255
-0.255
-0.265
-0.27
-0.26
-0.25
-0.245
-0.25
-0.27
-0.275
-0.27
-0.265
-0.24
-0.235
-0.25
-0.26
-0.265
-0.26
-0.225
-0.24
-0.23
-0.255
-0.245
-0.24
-0.22
-0.23
-0.23
-0.24
-0.23
-0.225
-0.21
-0.2
-0.205
-0.235
-0.235
-0.235
-0.225
-0.235
-0.23
-0.235
-0.245
-0.225
-0.225
-0.225
-0.255
-0.26
-0.265
-0.245
-0.24
-0.22
-0.235
-0.25
-0.25
-0.24
-0.245
-0.24
-0.26
-0.26
-0.245
-0.24
-0.235
-0.235
-0.25
-0.26
-0.235
-0.2
-0.15
-0.125
-0.125
-0.135
-0.135
-0.105
-0.08
-0.06
-0.035
-0.03
-0.01
0.02
0.03
0.025
0.01
-0.005
-0.01
-0.005
-0.025
-0.06
-0.125
-0.195
-0.225
-0.24
-0.235
-0.24
-0.255
-0.26
-0.28
-0.275
-0.28
-0.29
-0.31
-0.32
-0.315
-0.315
-0.3
-0.32
-0.33
-0.34
-0.34
-0.32
-0.295
-0.29
-0.3
-0.325
-0.305
-0.29
-0.275
-0.25
-0.23
-0.18
-0.08
0.055
0.24
0.455
0.695
0.92
1.12
1.21
1.145
0.835
0.365
-0.115
-0.44
-0.58
-0.58
-0.525
-0.52
-0.55
-0.585
-0.64
-0.655
-0.685
-0.7
-0.71
-0.695
-0.695
-0.695
-0.71
-0.735
-0.74
-0.695
-0.64
-0.58
-0.515
-0.465
-0.405
-0.325
-0.28
-0.225
-0.23
-0.225
-0.23
-0.195
-0.165
-0.15
-0.14
-0.145
-0.15
-0.165
-0.14
-0.105
-0.09
-0.1
-0.115
-0.105
-0.09
-0.08
-0.075
-0.08
-0.085
-0.07
-0.05
-0.02
-0.025
-0.035
-0.035
-0.03
-0.01
0.025
0.04
0.03
0.045
0.055
0.07
0.1
0.105
0.115
0.12
0.125
0.17
0.2
0.195
0.19
0.195
0.205
0.24
0.255
0.27
0.265
0.24
0.23
0.235
0.24
0.205
0.185
0.145
0.11
0.12
0.105
0.07
0.015
-0.015
-0.03
-0.03
-0.035
-0.055
-0.085
-0.125
-0.16
-0.16
-0.16
-0.18
-0.2
-0.22
-0.22
-0.23
-0.215
-0.24
-0.26
-0.285
-0.285
-0.27
-0.26
-0.26
-0.275
-0.285
-0.3
-0.3
-0.28
-0.28
-0.28
-0.275
-0.275
-0.27
-0.26
-0.27
-0.29
-0.305
-0.285
-0.255
-0.245
-0.26
-0.28
-0.3
-0.29
-0.29
-0.265
-0.27
-0.285
-0.275
-0.28
-0.275
-0.285
-0.285
-0.305
-0.295
-0.295
-0.28
-0.27
-0.27
-0.3
-0.31
-0.32
-0.305
-0.29
-0.29
-0.305
-0.31
-0.31
-0.325
-0.31
-0.315
-0.33
-0.33
-0.315
-0.29
-0.28
-0.29
-0.335
-0.335
-0.34
-0.31
-0.285
-0.26
-0.245
-0.25
-0.235
-0.215
-0.2
-0.2
-0.185
-0.185
-0.15
-0.115
-0.085
-0.08
-0.08
-0.09
-0.085
-0.075
-0.065
-0.075
-0.115
-0.155
-0.19
-0.23
-0.26
-0.305
-0.325
-0.355
-0.355
-0.37
-0.36
-0.38
-0.41
-0.425
-0.44
-0.425
-0.405
-0.41
-0.445
-0.45
-0.455
-0.455
-0.44
-0.435
-0.45
-0.46
-0.445
-0.42
-0.405
-0.4
-0.435
-0.42
-0.41
-0.375
-0.32
-0.255
-0.195
-0.065
0.125
0.36
0.64
0.885
1.035
1.04
0.81
0.43
-0.045
-0.47
-0.7
-0.705
-0.635
-0.605
-0.635
-0.7
-0.76
-0.825
-0.85
-0.84
-0.825
-0.81
-0.82
-0.845
-0.87
-0.895
-0.885
-0.875
-0.84
-0.805
-0.76
-0.7
-0.655
-0.575
-0.52
-0.475
-0.44
-0.385
-0.36
-0.34
-0.36
-0.35
-0.335
-0.32
-0.295
-0.3
-0.295
-0.3
-0.3
-0.27
-0.25
-0.265
-0.27
-0.265
-0.265
-0.225
-0.205
-0.21
-0.22
-0.225
-0.225
-0.215
-0.19
-0.18
-0.19
-0.175
-0.16
-0.13
-0.115
-0.11
-0.115
-0.12
-0.105
-0.06
-0.03
-0.025
-0.035
-0.025
-0.01
0.01
0.035
0.06
0.055
0.05
0.08
0.08
0.08
0.06
0.045
0.025
0.015
0.015
0
-0.02
-0.065
-0.1
-0.12
-0.135
-0.155
-0.165
-0.205
-0.22
-0.25
-0.26
-0.28
-0.3
-0.33
-0.355
-0.37
-0.355
-0.35
-0.37
-0.39
-0.425
-0.44
-0.43
-0.42
-0.41
-0.435
-0.44
-0.46
-0.465
-0.45
-0.455
-0.465
-0.465
-0.445
-0.435
-0.42
-0.43
-0.445
-0.46
-0.47
-0.44
-0.43
-0.415
-0.435
-0.45
-0.455
-0.455
-0.425
-0.425
-0.455
-0.45
-0.44
-0.43
-0.415
-0.43
-0.45
-0.46
-0.47
-0.46
-0.43
-0.435
-0.445
-0.46
-0.47
-0.475
-0.465
-0.455
-0.45
-0.455
-0.435
-0.415
-0.375
-0.375
-0.385
-0.375
-0.355
-0.34
-0.305
-0.295
-0.275
-0.26
-0.24
-0.23
-0.21
-0.195
-0.21
-0.21
-0.225
-0.23
-0.25
-0.295
-0.345
-0.405
-0.43
-0.445
-0.44
-0.46
-0.49
-0.505
-0.535
-0.54
-0.525
-0.52
-0.53
-0.555
-0.565
-0.56
-0.545
-0.555
-0.57
-0.575
-0.56
-0.55
-0.535
-0.55
-0.555
-0.575
-0.555
-0.535
-0.5
-0.5
-0.5
-0.49
-0.44
-0.36
-0.235
-0.055
0.195
0.465
0.735
0.935
1.005
0.83
0.435
-0.06
-0.51
-0.765
-0.815
-0.775
-0.715
-0.73
-0.785
-0.815
-0.84
-0.895
-0.925
-0.94
-0.93
-0.91
-0.91
-0.915
-0.96
-0.98
-0.995
-0.965
-0.915
-0.855
-0.82
-0.795
-0.75
-0.68
-0.605
-0.525
-0.495
-0.46
-0.435
-0.4
-0.375
-0.37
-0.37
-0.4
-0.375
-0.335
-0.31
-0.32
-0.32
-0.345
-0.34
-0.31
-0.3
-0.28
-0.285
-0.27
-0.265
-0.235
-0.235
-0.24
-0.24
-0.24
-0.225
-0.2
-0.155
-0.155
-0.16
-0.155
-0.14
-0.12
-0.085
-0.075
-0.055
-0.045
-0.02
0
0.035
0.035
0.035
0.02
0.05
0.095
0.13
0.14
0.135
0.125
0.12
0.12
0.135
0.135
0.11
0.095
0.065
0.065
0.06
0.035
-0.015
-0.05
-0.065
-0.05
-0.06
-0.08
-0.125
-0.16
-0.2
-0.21
-0.205
-0.215
-0.255
-0.26
-0.27
-0.27
-0.275
-0.31
-0.325
-0.345
-0.35
-0.325
-0.31
-0.315
-0.335
-0.34
-0.35
-0.335
-0.32
-0.33
-0.345
-0.36
-0.355
-0.33
-0.31
-0.34
-0.345
-0.345
-0.36
-0.345
-0.32
-0.32
-0.31
-0.325
-0.33
-0.33
-0.305
-0.31
-0.315
-0.33
-0.33
-0.31
-0.29
-0.305
-0.335
-0.345
-0.335
-0.33
-0.305
-0.295
-0.295
-0.295
-0.31
-0.3
-0.285
-0.305
-0.315
-0.32
-0.295
-0.265
-0.24
-0.225
-0.23
-0.225
-0.225
-0.195
-0.165
-0.135
-0.125
-0.115
-0.095
-0.065
-0.03
-0.035
-0.04
-0.05
-0.045
-0.045
-0.025
-0.03
-0.065
-0.095
-0.135
-0.17
-0.195
-0.23
-0.255
-0.28
-0.29
-0.3
-0.295
-0.31
-0.34
-0.345
-0.365
-0.35
-0.34
-0.34
-0.355
-0.375
-0.375
-0.38
-0.37
-0.365
-0.38
-0.385
-0.395
-0.36
-0.34
-0.35
-0.365
-0.36
-0.365
-0.34
-0.305
-0.275
-0.275
-0.235
-0.16
-0.025
0.165
0.38
0.64
0.905
1.145
1.305
1.29
1.065
0.63
0.14
-0.31
-0.605
-0.715
-0.685
-0.645
-0.645
-0.675
-0.695
-0.72
-0.765
-0.78
-0.825
-0.815
-0.78
-0.75
-0.775
-0.8
-0.815
-0.845
-0.825
-0.79
-0.74
-0.695
-0.665
-0.605
-0.545
-0.47
-0.415
-0.375
-0.335
-0.285
-0.255
-0.215
-0.205
-0.22
-0.23
-0.235
-0.215
-0.175
-0.175
-0.165
-0.17
-0.165
-0.14
-0.125
-0.135
-0.15
-0.165
-0.155
-0.12
-0.085
-0.085
-0.075
-0.09
-0.07
-0.075
-0.065
-0.055
-0.045
-0.05
-0.035
-0.005
0.02
0.025
0.035
0.035
0.04
0.07
0.12
0.135
0.14
0.15
0.17
0.19
0.225
0.225
0.22
0.23
0.25
0.275
0.315
0.31
0.305
0.295
0.285
0.295
0.3
0.28
0.255
0.235
0.21
0.19
0.175
0.13
0.085
0.06
0.025
0.01
0.01
-0.005
-0.03
-0.08
-0.1
-0.105
-0.11
-0.145
-0.165
-0.2
-0.195
-0.185
-0.19
-0.19
-0.235
-0.245
-0.275
-0.255
-0.245
-0.27
-0.265
-0.275
-0.275
-0.275
-0.27
-0.285
-0.285
-0.285
-0.285
-0.265
-0.245
-0.255
-0.26
-0.27
-0.285
-0.28
-0.255
-0.26
-0.265
-0.265
-0.275
-0.26
-0.265
-0.27
-0.275
-0.285
-0.285
-0.26
-0.235
-0.23
-0.255
-0.25
-0.25
-0.245
-0.23
-0.235
-0.245
-0.26
-0.245
-0.235
-0.23
-0.245
-0.245
-0.27
-0.265
-0.265
-0.235
-0.24
-0.235
-0.255
-0.245
-0.235
-0.235
-0.22
-0.22
-0.215
-0.175
-0.15
-0.125
-0.095
-0.1
-0.125
-0.11
-0.08
-0.03
-0.03
-0.02
0
0.02
0.055
0.075
0.06
0.04
0.02
0.02
0.025
0.015
-0.005
-0.03
-0.095
-0.135
-0.165
-0.175
-0.18
-0.22
-0.24
-0.24
-0.23
-0.22
-0.23
-0.25
-0.275
-0.29
-0.29
-0.275
-0.26
-0.275
-0.285
-0.28
-0.265
-0.255
-0.27
-0.285
-0.29
-0.27
-0.245
-0.235
-0.24
-0.245
-0.25
-0.25
-0.235
-0.205
-0.175
-0.12
-0.05
0.085
0.245
0.455
0.675
0.905
1.095
1.285
1.375
1.325
1.09
0.69
0.25
-0.15
-0.43
-0.54
-0.56
-0.54
-0.53
-0.535
-0.545
-0.545
-0.6
-0.645
-0.67
-0.68
-0.67
-0.65
-0.65
-0.665
-0.685
-0.69
-0.675
-0.65
-0.625
-0.605
-0.57
-0.525
-0.45
-0.385
-0.33
-0.275
-0.215
-0.17
-0.125
-0.11
-0.09
-0.095
-0.095
-0.085
-0.055
-0.025
-0.035
-0.04
-0.035
-0.03
-0.005
0.015
0.025
0.025
0.015
0.025
0.04
0.065
0.05
0.04
0.035
0.045
0.075
0.095
0.11
0.11
0.11
0.105
0.12
0.155
0.14
0.15
0.155
0.17
0.2
0.23
0.235
0.24
0.24
0.265
0.295
0.33
0.35
0.35
0.35
0.375
0.39
0.41
0.415
0.39
0.39
0.405
0.415
0.455
0.435
0.405
0.37
0.335
0.335
0.32
0.31
0.265
0.245
0.215
0.2
0.18
0.15
0.115
0.085
0.055
0.045
0.06
0.04
0.015
-0.015
-0.04
-0.05
-0.06
-0.07
-0.105
-0.11
-0.12
-0.105
-0.115
-0.11
-0.135
-0.175
-0.165
-0.155
-0.14
-0.145
-0.155
-0.16
-0.17
-0.155
-0.145
-0.155
-0.17
-0.175
-0.175
-0.145
-0.13
-0.135
-0.155
-0.15
-0.16
-0.145
-0.125
-0.125
-0.13
-0.14
-0.145
-0.13
-0.115
-0.125
-0.135
-0.145
-0.135
-0.125
-0.105
-0.1
-0.105
-0.12
-0.125
-0.13
-0.115
-0.11
-0.125
-0.125
-0.13
-0.11
-0.11
-0.11
-0.12
-0.135
-0.145
-0.125
-0.09
-0.095
-0.11
-0.115
-0.1
-0.075
-0.055
-0.03
-0.025
-0.01
0.005
0.04
0.07
0.08
0.085
0.09
0.1
0.135
0.165
0.18
0.18
0.17
0.14
0.145
0.155
0.115
0.095
0.045
0.02
-0.025
-0.025
-0.06
-0.105
-0.11
-0.13
-0.13
-0.14
-0.125
-0.135
-0.145
-0.15
-0.145
-0.135
-0.15
-0.17
-0.185
-0.195
-0.17
-0.145
-0.145
-0.165
-0.185
-0.17
-0.175
-0.15
-0.15
-0.14
-0.125
-0.13
-0.11
-0.075
-0.06
-0.03
0.06
0.18
0.375
0.575
0.815
1.025
1.225
1.345
1.34
1.14
0.765
0.355
-0.015
-0.305
-0.42
-0.395
-0.345
-0.345
-0.385
-0.43
-0.455
-0.48
-0.485
-0.54
-0.545
-0.55
-0.54
-0.54
-0.56
-0.595
-0.6
-0.585
-0.55
-0.5
-0.465
-0.43
-0.4
-0.36
-0.3
-0.21
-0.145
-0.095
-0.07
-0.055
-0.045
-0.025
-0.015
-0.01
-0.015
0
0.025
0.05
0.05
0.04
0.025
0.02
0.05
0.08
0.08
0.07
0.075
0.09
0.105
0.115
0.095
0.095
0.085
0.115
0.14
0.17
0.165
0.17
0.16
0.17
0.185
0.21
0.205
0.215
0.23
0.245
0.275
0.295
0.3
0.3
0.29
0.3
0.31
0.365
0.365
0.375
0.37
0.375
0.405
0.415
0.415
0.39
0.41
0.4
0.405
0.41
0.385
0.35
0.305
0.28
0.27
0.26
0.23
0.22
0.18
0.16
0.155
0.14
0.12
0.08
0.05
0.035
0.03
0.035
0.02
0
-0.02
-0.055
-0.055
-0.05
-0.055
-0.075
-0.11
-0.105
-0.09
-0.08
-0.09
-0.11
-0.135
-0.145
-0.125
-0.105
-0.1
-0.115
-0.12
-0.125
-0.125
-0.115
-0.115
-0.13
-0.125
-0.13
-0.105
-0.08
-0.085
-0.095
-0.115
-0.145
-0.13
-0.1
-0.11
-0.115
-0.12
-0.125
-0.105
-0.08
-0.095
-0.105
-0.13
-0.13
-0.105
-0.09
-0.09
-0.09
-0.105
-0.125
-0.125
-0.13
-0.135
-0.125
-0.12
-0.12
-0.12
-0.115
-0.115
-0.13
-0.145
-0.15
-0.095
-0.065
-0.045
-0.035
-0.045
-0.025
-0.005
0.01
0.025
0.02
0.025
0.055
0.095
0.145
0.14
0.14
0.13
0.125
0.13
0.12
0.1
0.07
0.035
0.02
0.015
-0.025
-0.06
-0.1
-0.155
-0.165
-0.165
-0.15
-0.155
-0.175
-0.2
-0.2
-0.195
-0.2
-0.205
-0.225
-0.24
-0.25
-0.24
-0.22
-0.22
-0.245
-0.255
-0.27
-0.245
-0.24
-0.24
-0.23
-0.23
-0.225
-0.215
-0.195
-0.19
-0.205
-0.205
-0.17
-0.11
-0.01
0.08
0.23
0.42
0.655
0.905
1.12
1.26
1.24
1.05
0.665
0.27
-0.085
-0.37
-0.495
-0.505
-0.445
-0.42
-0.435
-0.46
-0.51
-0.555
-0.585
-0.595
-0.595
-0.605
-0.605
-0.6
-0.615
-0.615
-0.615
-0.635
-0.63
-0.615
-0.58
-0.53
-0.48
-0.415
-0.365
-0.31
-0.25
-0.195
-0.175
-0.15
-0.135
-0.13
-0.105
-0.08
-0.055
-0.035
-0.05
-0.06
-0.055
-0.045
-0.035
-0.03
-0.025
-0.03
-0.025
0.005
0.015
0.015
0.005
-0.01
-0.015
0.01
0.035
0.065
0.05
0.03
0.04
0.045
0.07
0.08
0.09
0.095
0.12
0.155
0.17
0.18
0.17
0.175
0.18
0.205
0.255
0.25
0.26
0.255
0.265
0.275
0.29
0.29
0.3
0.295
0.305
0.315
0.33
0.3
0.28
0.24
0.225
0.22
0.215
0.215
0.185
0.15
0.12
0.1
0.08
0.07
0.035
0.01
-0.005
-0.005
-0.01
-0.035
-0.075
-0.085
-0.11
-0.115
-0.095
-0.11
-0.12
-0.14
-0.155
-0.16
-0.145
-0.145
-0.15
-0.175
-0.17
-0.15
-0.14
-0.145
-0.155
-0.18
-0.17
-0.16
-0.13
-0.14
-0.13
-0.155
-0.165
-0.15
-0.135
-0.135
-0.135
-0.14
-0.13
-0.12
-0.105
-0.135
-0.145
-0.15
-0.15
-0.135
-0.11
-0.105
-0.115
-0.125
-0.125
-0.13
-0.115
-0.11
-0.105
-0.09
-0.075
-0.04
-0.01
-0.005
-0.005
-0.01
0.025
0.05
0.065
0.095
0.115
0.115
0.12
0.125
0.14
0.135
0.115
0.095
0.085
0.08
0.065
0.025
-0.045
-0.11
-0.13
-0.135
-0.14
-0.145
-0.165
-0.18
-0.2
-0.2
-0.195
-0.225
-0.255
-0.275
-0.26
-0.245
-0.24
-0.235
-0.27
-0.275
-0.295
-0.27
-0.25
-0.255
-0.265
-0.27
-0.265
-0.245
-0.23
-0.23
-0.245
-0.235
-0.22
-0.17
-0.105
-0.02
0.085
0.26
0.47
0.715
0.965
1.145
1.25
1.17
0.89
0.485
0.075
-0.295
-0.53
-0.59
-0.545
-0.475
-0.455
-0.495
-0.54
-0.585
-0.63
-0.64
-0.655
-0.655
-0.66
-0.66
-0.67
