-0.02
-0.02
-0.02
-0.02
-0.02
-0.02
-0.02
-0.02
-0.02
0.005
0.02
0.025
0.04
0.04
0.045
0.075
0.09
0.09
0.095
0.09
0.11
0.13
0.13
0.14
0.13
0.12
0.125
0.13
0.15
0.14
0.12
0.135
0.135
0.155
0.165
0.165
0.135
0.125
0.13
0.125
0.11
0.1
0.08
0.06
0.075
0.085
0.09
0.07
0.045
0.02
0.01
0.005
-0.01
-0.045
-0.065
-0.07
-0.08
-0.07
-0.055
-0.08
-0.115
-0.13
-0.105
-0.08
-0.07
-0.085
-0.11
-0.12
-0.12
-0.105
-0.09
-0.1
-0.11
-0.125
-0.125
-0.105
-0.12
-0.085
-0.1
-0.1
-0.105
-0.105
-0.115
-0.115
-0.11
-0.135
-0.135
-0.12
-0.12
-0.12
-0.115
-0.125
-0.125
-0.12
-0.1
-0.1
-0.11
-0.12
-0.115
-0.115
-0.105
-0.095
-0.125
-0.14
-0.125
-0.11
-0.09
-0.1
-0.12
-0.13
-0.14
-0.14
-0.115
-0.1
-0.11
-0.11
-0.085
-0.065
-0.04
-0.035
-0.055
-0.075
-0.055
-0.03
0
-0.02
-0.045
-0.06
-0.045
-0.03
-0.025
-0.02
-0.025
-0.06
-0.07
-0.05
-0.045
-0.055
-0.09
-0.105
-0.11
-0.11
-0.09
-0.095
-0.09
-0.09
-0.07
-0.06
-0.065
-0.08
-0.1
-0.115
-0.125
-0.13
-0.14
-0.16
-0.16
-0.165
-0.185
-0.175
-0.185
-0.185
-0.195
-0.2
-0.19
-0.19
-0.185
-0.18
-0.185
-0.19
-0.19
-0.185
-0.175
-0.19
-0.19
-0.2
-0.195
-0.2
-0.21
-0.24
-0.26
-0.25
-0.215
-0.115
0.01
0.17
0.375
0.6
0.85
1.08
1.195
1.15
0.9
0.55
0.115
-0.34
-0.71
-0.85
-0.8
-0.68
-0.555
-0.445
-0.375
-0.32
-0.285
-0.255
-0.235
-0.215
-0.22
-0.22
-0.235
-0.21
-0.2
-0.205
-0.2
-0.205
-0.21
-0.225
-0.21
-0.19
-0.18
-0.195
-0.205
-0.21
-0.21
-0.2
-0.195
-0.205
-0.215
-0.205
-0.205
-0.175
-0.175
-0.16
-0.16
-0.14
-0.15
-0.125
-0.12
-0.125
-0.145
-0.145
-0.125
-0.09
-0.06
-0.07
-0.07
-0.075
-0.06
-0.04
-0.015
-0.02
-0.02
0.005
0.025
0.04
0.04
0.05
0.025
0.025
0.035
0.06
0.085
0.09
0.07
0.065
0.07
0.095
0.11
0.105
0.09
0.075
0.075
0.08
0.09
0.085
0.055
0.035
0.055
0.055
0.045
0.025
0
-0.005
-0.02
-0.035
-0.045
-0.06
-0.085
-0.105
-0.115
-0.125
-0.12
-0.13
-0.155
-0.16
-0.17
-0.165
-0.175
-0.165
-0.19
-0.205
-0.205
-0.2
-0.205
-0.21
-0.22
-0.235
-0.225
-0.205
-0.195
-0.2
-0.21
-0.23
-0.215
-0.205
-0.2
-0.19
-0.21
-0.22
-0.215
-0.215
-0.195
-0.195
-0.195
-0.21
-0.21
-0.205
-0.195
-0.2
-0.2
-0.205
-0.205
-0.195
-0.18
-0.185
-0.2
-0.2
-0.165
-0.165
-0.145
-0.155
-0.165
-0.15
-0.145
-0.145
-0.15
-0.165
-0.165
-0.17
-0.15
-0.145
-0.13
-0.14
-0.145
-0.145
-0.135
-0.13
-0.115
-0.11
-0.115
-0.12
-0.11
-0.12
-0.12
-0.13
-0.135
-0.14
-0.145
-0.14
-0.125
-0.12
-0.14
-0.17
-0.18
-0.18
-0.175
-0.185
-0.19
-0.205
-0.185
-0.165
-0.145
-0.16
-0.19
-0.215
-0.225
-0.235
-0.245
-0.275
-0.28
-0.275
-0.27
-0.235
-0.24
-0.255
-0.265
-0.265
-0.255
-0.26
-0.25
-0.25
-0.25
-0.25
-0.255
-0.25
-0.24
-0.24
-0.24
-0.26
-0.255
-0.255
-0.285
-0.32
-0.335
-0.36
-0.31
-0.25
-0.16
-0.035
0.1
0.28
0.52
0.76
0.96
1.08
1.055
0.905
0.635
0.325
-0.06
-0.5
-0.81
-0.88
-0.825
-0.74
-0.65
-0.55
-0.475
-0.41
-0.37
-0.335
-0.32
-0.3
-0.305
-0.3
-0.28
-0.275
-0.275
-0.29
-0.285
-0.28
-0.265
-0.26
-0.25
-0.255
-0.27
-0.265
-0.255
-0.245
-0.245
-0.285
-0.275
-0.26
-0.25
-0.235
-0.24
-0.255
-0.225
-0.235
-0.225
-0.21
-0.2
-0.195
-0.205
-0.205
-0.19
-0.16
-0.13
-0.135
-0.155
-0.165
-0.16
-0.145
-0.14
-0.135
-0.13
-0.12
-0.105
-0.075
-0.06
-0.035
-0.04
-0.04
-0.005
0.01
0.015
0.015
0.005
0.01
0.035
0.04
0.06
0.06
0.05
0.03
0.045
0.04
0.05
0.05
0.05
0.045
0.055
0.06
0.06
0.055
0.035
0.015
0.005
0.005
-0.01
-0.035
-0.08
-0.095
-0.085
-0.08
-0.085
-0.1
-0.125
-0.145
-0.15
-0.16
-0.18
-0.185
-0.195
-0.2
-0.205
-0.195
-0.19
-0.19
-0.2
-0.23
-0.215
-0.205
-0.205
-0.22
-0.21
-0.23
-0.24
-0.235
-0.245
-0.235
-0.25
-0.25
-0.23
-0.225
-0.22
-0.235
-0.24
-0.25
-0.25
-0.23
-0.215
-0.22
-0.225
-0.225
-0.215
-0.2
-0.2
-0.215
-0.23
-0.24
-0.23
-0.205
-0.2
-0.205
-0.235
-0.265
-0.25
-0.23
-0.205
-0.205
-0.23
-0.235
-0.225
-0.195
-0.185
-0.165
-0.17
-0.17
-0.185
-0.185
-0.185
-0.175
-0.165
-0.155
-0.16
-0.15
-0.14
-0.155
-0.165
-0.185
-0.195
-0.19
-0.21
-0.215
-0.22
-0.19
-0.18
-0.185
-0.185
-0.195
-0.22
-0.23
-0.23
-0.235
-0.23
-0.24
-0.255
-0.255
-0.235
-0.24
-0.25
-0.29
-0.315
-0.325
-0.315
-0.3
-0.3
-0.295
-0.315
-0.31
-0.31
-0.3
-0.295
-0.305
-0.335
-0.35
-0.34
-0.32
-0.31
-0.295
-0.305
-0.31
-0.305
-0.3
-0.31
-0.335
-0.375
-0.405
-0.415
-0.375
-0.325
-0.22
-0.09
0.065
0.285
0.515
0.755
0.94
0.995
0.92
0.725
0.445
0.095
-0.34
-0.705
-0.885
-0.885
-0.805
-0.75
-0.7
-0.6
-0.515
-0.44
-0.415
-0.41
-0.395
-0.385
-0.375
-0.365
-0.33
-0.315
-0.32
-0.34
-0.345
-0.335
-0.315
-0.3
-0.31
-0.33
-0.355
-0.335
-0.305
-0.295
-0.305
-0.32
-0.325
-0.315
-0.29
-0.285
-0.285
-0.285
-0.275
-0.26
-0.25
-0.245
-0.245
-0.24
-0.23
-0.22
-0.2
-0.195
-0.185
-0.2
-0.19
-0.175
-0.16
-0.135
-0.11
-0.1
-0.1
-0.09
-0.095
-0.095
-0.08
-0.07
-0.06
-0.045
-0.025
-0.01
0.01
-0.005
-0.025
-0.035
-0.02
0
-0.015
-0.025
0.005
0.01
0.035
0.03
0.015
-0.015
-0.035
-0.035
-0.05
-0.075
-0.1
-0.12
-0.13
-0.14
-0.115
-0.11
-0.135
-0.165
-0.18
-0.19
-0.2
-0.205
-0.22
-0.24
-0.28
-0.305
-0.315
-0.305
-0.3
-0.29
-0.315
-0.305
-0.305
-0.305
-0.315
-0.335
-0.34
-0.33
-0.32
-0.305
-0.315
-0.31
-0.31
-0.29
-0.28
-0.275
-0.295
-0.305
-0.315
-0.295
-0.3
-0.275
-0.28
-0.26
-0.27
-0.255
-0.26
-0.25
-0.265
-0.275
-0.295
-0.275
-0.265
-0.235
-0.27
-0.29
-0.29
-0.28
-0.25
-0.21
-0.215
-0.24
-0.275
-0.285
-0.26
-0.24
-0.225
-0.25
-0.265
-0.25
-0.235
-0.23
-0.235
-0.25
-0.23
-0.23
-0.215
-0.195
-0.2
-0.21
-0.205
-0.23
-0.225
-0.21
-0.2
-0.235
-0.265
-0.27
-0.26
-0.24
-0.225
-0.235
-0.24
-0.24
-0.23
-0.245
-0.28
-0.31
-0.285
-0.255
-0.235
-0.255
-0.28
-0.285
-0.305
-0.32
-0.355
-0.36
-0.355
-0.345
-0.345
-0.355
-0.34
-0.33
-0.315
-0.33
-0.355
-0.375
-0.365
-0.345
-0.34
-0.35
-0.35
-0.35
-0.34
-0.34
-0.345
-0.38
-0.39
-0.42
-0.45
-0.43
-0.405
-0.35
-0.265
-0.12
0.08
0.325
0.57
0.78
0.94
1.035
0.96
0.77
0.46
0.065
-0.415
-0.765
-0.9
-0.865
-0.805
-0.74
-0.66
-0.555
-0.47
-0.43
-0.44
-0.445
-0.45
-0.42
-0.38
-0.375
-0.39
-0.395
-0.41
-0.42
-0.41
-0.385
-0.37
-0.355
-0.385
-0.4
-0.405
-0.38
-0.375
-0.355
-0.34
-0.335
-0.36
-0.37
-0.365
-0.35
-0.34
-0.355
-0.345
-0.315
-0.295
-0.29
-0.295
-0.295
-0.285
-0.29
-0.29
-0.295
-0.28
-0.255
-0.23
-0.185
-0.17
-0.185
-0.23
-0.255
-0.225
-0.17
-0.15
-0.175
-0.185
-0.175
-0.145
-0.11
-0.09
-0.085
-0.09
-0.055
-0.03
0.005
-0.03
-0.07
-0.11
-0.105
-0.08
-0.06
-0.065
-0.105
-0.1
-0.045
-0.02
-0.045
-0.08
-0.11
-0.085
-0.085
-0.13
-0.17
-0.185
-0.17
-0.15
-0.145
-0.175
-0.225
-0.23
-0.18
-0.18
-0.22
-0.315
-0.355
-0.35
-0.335
-0.325
-0.29
-0.28
-0.285
-0.31
-0.345
-0.38
-0.38
-0.36
-0.35
-0.33
-0.33
-0.315
-0.32
-0.335
-0.355
-0.365
-0.34
-0.33
-0.305
-0.32
-0.355
-0.39
-0.395
-0.365
-0.325
-0.315
-0.325
-0.355
-0.39
-0.395
-0.36
-0.325
-0.32
-0.335
-0.33
-0.315
-0.285
-0.28
-0.3
-0.305
-0.3
-0.29
-0.29
-0.305
-0.315
-0.32
-0.29
-0.25
-0.2
-0.19
-0.215
-0.235
-0.25
-0.225
-0.185
-0.17
-0.19
-0.245
-0.25
-0.24
-0.24
-0.265
-0.31
-0.335
-0.34
-0.315
-0.31
-0.295
-0.3
-0.3
-0.29
-0.28
-0.295
-0.325
-0.325
-0.32
-0.3
-0.29
-0.275
-0.275
-0.3
-0.335
-0.375
-0.365
-0.365
-0.36
-0.355
-0.39
-0.405
-0.37
-0.305
-0.305
-0.37
-0.435
-0.44
-0.41
-0.365
-0.355
-0.37
-0.39
-0.405
-0.35
-0.31
-0.295
-0.33
-0.38
-0.43
-0.4
-0.35
-0.25
-0.14
0
0.195
0.44
0.705
0.945
1.105
1.11
0.895
0.505
0.06
-0.405
-0.795
-0.97
-0.985
-0.935
-0.865
-0.785
-0.7
-0.635
-0.595
-0.545
-0.48
-0.42
-0.42
-0.445
-0.45
-0.455
-0.45
-0.445
-0.455
-0.45
-0.435
-0.415
-0.41
-0.385
-0.37
-0.36
-0.375
-0.39
-0.37
-0.36
-0.345
-0.34
-0.335
-0.355
-0.38
-0.405
-0.42
-0.395
-0.38
-0.36
-0.36
-0.355
-0.37
-0.355
-0.36
-0.355
-0.37
-0.33
-0.29
-0.285
-0.28
-0.29
-0.29
-0.27
-0.24
-0.195
-0.18
-0.195
-0.23
-0.235
-0.2
-0.175
-0.15
-0.135
-0.125
-0.14
-0.16
-0.17
-0.18
-0.165
-0.135
-0.1
-0.105
-0.11
-0.09
-0.085
-0.07
-0.05
-0.025
-0.02
-0.03
-0.07
-0.085
-0.105
-0.115
-0.135
-0.145
-0.155
-0.165
-0.205
-0.25
-0.28
-0.27
-0.265
-0.27
-0.31
-0.325
-0.33
-0.325
-0.32
-0.33
-0.335
-0.335
-0.375
-0.365
-0.355
-0.34
-0.31
-0.3
-0.33
-0.345
-0.34
-0.33
-0.3
-0.275
-0.3
-0.325
-0.335
-0.315
-0.285
-0.27
-0.285
-0.3
-0.295
-0.285
-0.28
-0.275
-0.295
-0.295
-0.305
-0.29
-0.285
-0.285
-0.28
-0.28
-0.295
-0.305
-0.3
-0.29
-0.29
-0.315
-0.295
-0.27
-0.25
-0.255
-0.27
-0.27
-0.26
-0.225
-0.215
-0.205
-0.19
-0.195
-0.205
-0.185
-0.17
-0.165
-0.17
-0.185
-0.185
-0.18
-0.165
-0.19
-0.205
-0.2
-0.2
-0.195
-0.205
-0.245
-0.25
-0.26
-0.25
-0.245
-0.235
-0.235
-0.23
-0.245
-0.23
-0.22
-0.205
-0.21
-0.245
-0.27
-0.3
-0.3
-0.3
-0.305
-0.305
-0.3
-0.305
-0.285
-0.28
-0.265
-0.28
-0.28
-0.27
-0.26
-0.265
-0.275
-0.28
-0.29
-0.28
-0.27
-0.255
-0.27
-0.295
-0.335
-0.35
-0.335
-0.27
-0.17
-0.025
0.165
0.415
0.695
0.965
1.145
1.175
1.005
0.685
0.255
-0.225
-0.67
-0.86
-0.845
-0.78
-0.695
-0.6
-0.5
-0.44
-0.405
-0.375
-0.36
-0.32
-0.305
-0.31
-0.325
-0.31
-0.295
-0.29
-0.295
-0.31
-0.305
-0.3
-0.295
-0.275
-0.26
-0.255
-0.25
-0.25
-0.24
-0.22
-0.235
-0.24
-0.245
-0.24
-0.205
-0.195
-0.19
-0.195
-0.195
-0.19
-0.17
-0.17
-0.155
-0.17
-0.16
-0.14
-0.115
-0.1
-0.1
-0.085
-0.08
-0.06
-0.03
-0.01
-0.01
-0.025
-0.04
-0.025
0.01
0.04
0.06
0.06
0.055
0.055
0.065
0.07
0.08
0.075
0.075
0.09
0.11
0.115
0.12
0.11
0.095
0.08
0.07
0.055
0.055
0.055
0.045
0.045
0.04
0.025
-0.005
-0.035
-0.05
-0.07
-0.08
-0.095
-0.115
-0.135
-0.145
-0.135
-0.12
-0.125
-0.12
-0.155
-0.145
-0.16
-0.16
-0.155
-0.165
-0.17
-0.17
-0.18
-0.165
-0.14
-0.135
-0.12
-0.135
-0.135
-0.13
-0.11
-0.12
-0.135
-0.16
-0.16
-0.155
-0.15
-0.14
-0.145
-0.155
-0.155
-0.145
-0.135
-0.135
-0.13
-0.125
-0.135
-0.12
-0.105
-0.11
-0.13
-0.145
-0.15
-0.125
-0.11
-0.115
-0.125
-0.12
-0.11
-0.105
-0.095
-0.08
-0.075
-0.06
-0.065
-0.045
-0.03
-0.045
-0.035
-0.055
-0.06
-0.065
-0.07
-0.08
-0.07
-0.1
-0.095
-0.09
-0.085
-0.085
-0.1
-0.12
-0.13
-0.12
-0.105
-0.115
-0.12
-0.13
-0.14
-0.125
-0.095
-0.095
-0.105
-0.12
-0.145
-0.15
-0.155
-0.165
-0.18
-0.2
-0.19
-0.18
-0.18
-0.175
-0.185
-0.19
-0.19
-0.185
-0.18
-0.175
-0.19
-0.205
-0.2
-0.19
-0.18
-0.185
-0.205
-0.225
-0.26
-0.245
-0.215
-0.155
-0.05
0.095
0.295
0.56
0.83
1.09
1.255
1.3
1.15
0.83
0.41
-0.105
-0.59
-0.83
-0.825
-0.71
-0.6
-0.495
-0.41
-0.335
-0.28
-0.235
-0.215
-0.215
-0.22
-0.23
-0.22
-0.205
-0.18
-0.2
-0.21
-0.235
-0.22
-0.205
-0.205
-0.195
-0.185
-0.19
-0.19
-0.17
-0.155
-0.16
-0.16
-0.16
-0.175
-0.155
-0.15
-0.155
-0.15
-0.16
-0.15
-0.145
-0.105
-0.115
-0.12
-0.105
-0.085
-0.06
-0.055
-0.045
-0.045
-0.035
-0.015
0.005
0.03
0.025
0.025
0.01
0.045
0.075
0.09
0.105
0.085
0.095
0.11
0.12
0.145
0.13
0.14
0.145
0.135
0.155
0.17
0.165
0.145
0.13
0.135
0.155
0.155
0.155
0.15
0.14
0.15
0.16
0.165
0.145
0.11
0.09
0.075
0.065
0.065
0.045
0.02
-0.015
-0.04
-0.035
-0.025
-0.04
-0.065
-0.095
-0.09
-0.055
-0.05
-0.07
-0.08
-0.08
-0.08
-0.08
-0.065
-0.06
-0.07
-0.09
-0.085
-0.08
-0.065
-0.07
-0.08
-0.09
-0.1
-0.1
-0.085
-0.09
-0.085
-0.105
-0.11
-0.085
-0.07
-0.075
-0.09
-0.1
-0.09
-0.08
-0.065
-0.08
-0.075
-0.085
-0.085
-0.07
-0.07
-0.09
-0.095
-0.09
-0.08
-0.065
-0.055
-0.08
-0.08
-0.085
-0.065
-0.045
-0.035
-0.03
-0.025
-0.03
-0.015
0
0.015
0.01
0.015
0.02
-0.005
-0.015
-0.015
-0.025
-0.04
-0.055
-0.025
-0.015
-0.03
-0.035
-0.05
-0.045
-0.07
-0.075
-0.055
-0.065
-0.08
-0.09
-0.1
-0.055
-0.045
-0.055
-0.06
-0.065
-0.075
-0.07
-0.095
-0.11
-0.15
-0.155
-0.155
-0.13
-0.125
-0.125
-0.13
-0.135
-0.145
-0.13
-0.105
-0.11
-0.135
-0.145
-0.135
-0.115
-0.1
-0.12
-0.155
-0.185
-0.215
-0.195
-0.155
-0.065
0.075
0.26
0.535
0.855
1.165
1.395
1.37
1.045
0.51
-0.11
-0.595
-0.765
-0.665
-0.475
-0.325
-0.245
-0.2
-0.17
-0.17
-0.165
-0.17
-0.17
-0.155
-0.15
-0.16
-0.165
-0.16
-0.155
-0.125
-0.12
-0.125
-0.15
-0.165
-0.135
-0.125
-0.115
-0.125
-0.135
-0.14
-0.125
-0.12
-0.125
-0.13
-0.13
-0.12
-0.11
-0.08
-0.08
-0.08
-0.075
-0.065
-0.065
-0.04
-0.04
-0.04
-0.04
-0.03
0.005
0.035
0.035
0.05
0.045
0.065
0.095
0.105
0.105
0.105
0.105
0.115
0.145
0.155
0.16
0.155
0.14
0.14
0.15
0.18
0.185
0.18
0.16
0.165
0.185
0.2
0.195
0.19
0.18
0.165
0.16
0.16
0.155
0.125
0.115
0.11
0.115
0.105
0.07
0.04
0.025
0.005
0
-0.005
-0.01
-0.05
-0.05
-0.055
-0.05
-0.06
-0.065
-0.09
-0.09
-0.08
-0.065
-0.07
-0.065
-0.09
-0.105
-0.115
-0.1
-0.09
-0.095
-0.11
-0.115
-0.115
-0.105
-0.095
-0.09
-0.095
-0.105
-0.11
-0.105
-0.1
-0.1
-0.11
-0.125
-0.125
-0.125
-0.105
-0.11
-0.13
-0.145
-0.135
-0.13
-0.12
-0.125
-0.14
-0.14
-0.125
-0.1
-0.1
-0.115
-0.115
-0.11
-0.11
-0.1
-0.08
-0.085
-0.09
-0.085
-0.075
-0.06
-0.05
-0.04
-0.05
-0.065
-0.05
-0.03
-0.015
-0.015
-0.04
-0.045
-0.045
-0.05
-0.04
-0.06
-0.055
-0.07
-0.07
-0.055
-0.055
-0.06
-0.09
-0.11
-0.115
-0.115
-0.105
-0.095
-0.11
-0.115
-0.095
-0.065
-0.06
-0.075
-0.1
-0.115
-0.145
-0.155
-0.16
-0.165
-0.19
-0.2
-0.185
-0.185
-0.16
-0.17
-0.175
-0.175
-0.2
-0.17
-0.165
-0.17
-0.17
-0.18
-0.19
-0.165
-0.16
-0.18
-0.195
-0.205
-0.22
-0.255
-0.28
-0.27
-0.245
-0.185
-0.06
0.12
0.345
0.58
0.83
1.075
1.235
1.285
1.15
0.88
0.515
0.12
-0.32
-0.68
-0.81
-0.76
-0.655
-0.565
-0.485
-0.395
-0.325
-0.285
-0.265
-0.24
-0.215
-0.2
-0.215
-0.225
-0.235
-0.235
-0.245
-0.24
-0.215
-0.215
-0.225
-0.225
-0.23
-0.215
-0.195
-0.21
-0.21
-0.21
-0.215
-0.2
-0.18
-0.19
-0.2
-0.205
-0.21
-0.19
-0.165
-0.16
-0.175
-0.19
-0.165
-0.145
-0.13
-0.125
-0.145
-0.15
-0.14
-0.12
-0.1
-0.1
-0.1
-0.105
-0.1
-0.08
-0.06
-0.05
-0.05
-0.03
-0.015
0.005
-0.01
0.02
0.02
0.025
0.045
0.075
0.09
0.1
0.095
0.09
0.095
0.11
0.115
0.115
0.115
0.1
0.115
0.125
0.145
0.125
0.115
0.105
0.095
0.1
0.11
0.1
0.09
0.075
0.065
0.045
0.045
0.025
0.01
-0.02
-0.03
-0.04
-0.05
-0.07
-0.085
-0.09
-0.095
-0.1
-0.09
-0.13
-0.15
-0.14
-0.14
-0.125
-0.135
-0.155
-0.155
-0.165
-0.16
-0.16
-0.15
-0.17
-0.165
-0.18
-0.175
-0.175
-0.135
-0.14
-0.165
-0.175
-0.185
-0.16
-0.165
-0.155
-0.175
-0.2
-0.19
-0.175
-0.16
-0.155
-0.155
-0.165
-0.165
-0.16
-0.16
-0.15
-0.17
-0.17
-0.165
-0.17
-0.17
-0.165
-0.175
-0.165
-0.16
-0.15
-0.14
-0.13
-0.145
-0.165
-0.155
-0.135
-0.14
-0.13
-0.135
-0.13
-0.12
-0.105
-0.115
-0.115
-0.12
-0.115
-0.1
-0.09
-0.085
-0.1
-0.115
-0.12
-0.12
-0.1
-0.1
-0.11
-0.13
-0.135
-0.135
-0.12
-0.12
-0.14
-0.155
-0.165
-0.17
-0.155
-0.155
-0.16
-0.155
-0.155
-0.16
-0.15
-0.16
-0.185
-0.22
-0.24
-0.24
-0.235
-0.225
-0.23
-0.235
-0.245
-0.245
-0.22
-0.21
-0.215
-0.23
-0.255
-0.25
-0.255
-0.235
-0.23
-0.255
-0.24
-0.235
-0.23
-0.24
-0.255
-0.285
-0.32
-0.325
-0.285
-0.2
-0.105
0.025
0.195
0.445
0.71
0.97
1.145
1.215
1.095
0.815
0.45
0.045
-0.4
-0.765
-0.9
-0.835
-0.72
-0.615
-0.515
-0.42
-0.375
-0.35
-0.31
-0.295
-0.27
-0.28
-0.29
-0.295
-0.265
-0.25
-0.25
-0.25
-0.26
-0.26
-0.245
-0.245
-0.26
-0.25
-0.265
-0.255
-0.255
-0.25
-0.255
-0.245
-0.225
-0.21
-0.215
-0.195
-0.2
-0.2
-0.2
-0.2
-0.19
-0.185
-0.195
-0.19
-0.185
-0.165
-0.165
-0.155
-0.135
-0.125
-0.115
-0.095
-0.08
-0.07
-0.065
-0.065
-0.075
-0.06
-0.03
-0.02
-0.015
-0.005
0
0.015
0.025
0.04
0.04
0.045
0.055
0.065
0.075
0.095
0.085
0.075
0.06
0.07
0.09
0.09
0.1
0.08
0.065
0.075
0.075
0.095
0.055
0.04
0.045
0.04
0.045
0.035
0.01
-0.015
-0.03
-0.04
-0.04
-0.04
-0.065
-0.1
-0.12
-0.11
-0.115
-0.135
-0.135
-0.155
-0.17
-0.18
-0.16
-0.17
-0.18
-0.185
-0.205
-0.195
-0.175
-0.175
-0.17
-0.19
-0.19
-0.2
-0.19
-0.18
-0.17
-0.175
-0.185
-0.185
-0.16
-0.155
-0.18
-0.21
-0.235
-0.21
-0.2
-0.18
-0.2
-0.205
-0.215
-0.21
-0.18
-0.17
-0.18
-0.205
-0.205
-0.19
-0.2
-0.19
-0.2
-0.195
-0.21
-0.22
-0.195
-0.195
-0.195
-0.205
-0.235
-0.22
-0.195
-0.18
-0.175
-0.19
-0.2
-0.195
-0.185
-0.175
-0.165
-0.16
-0.155
-0.175
-0.15
-0.14
-0.155
-0.145
-0.165
-0.135
-0.13
-0.12
-0.135
-0.155
-0.165
-0.165
-0.15
-0.17
-0.165
-0.175
-0.195
-0.195
-0.195
-0.205
-0.195
-0.205
-0.21
-0.215
-0.215
-0.195
-0.195
-0.215
-0.225
-0.245
-0.225
-0.235
-0.25
-0.275
-0.3
-0.3
-0.28
-0.265
-0.275
-0.285
-0.295
-0.295
-0.275
-0.265
-0.265
-0.285
-0.305
-0.29
-0.285
-0.27
-0.265
-0.285
-0.285
-0.275
-0.26
-0.27
-0.295
-0.33
-0.37
-0.37
-0.33
-0.265
-0.18
-0.04
0.12
0.35
0.61
0.825
1.025
1.105
1.015
0.79
0.485
0.115
-0.335
-0.75
-0.94
-0.905
-0.8
-0.68
-0.57
-0.475
-0.435
-0.385
-0.35
-0.32
-0.305
-0.315
-0.335
-0.33
-0.32
-0.32
-0.32
-0.33
-0.325
-0.32
-0.315
-0.305
-0.285
-0.29
-0.3
-0.315
-0.315
-0.29
-0.27
-0.265
-0.27
-0.26
-0.25
-0.245
-0.235
-0.25
-0.25
-0.255
-0.24
-0.225
-0.23
-0.22
-0.24
-0.235
-0.215
-0.2
-0.205
-0.185
-0.18
-0.165
-0.14
-0.135
-0.145
-0.145
-0.135
-0.11
-0.08
-0.065
-0.06
-0.045
-0.04
-0.035
-0.02
0
-0.005
0.005
0
-0.005
0.005
0.03
0.05
0.045
0.04
0.04
0.06
0.05
0.035
0.035
0.035
0.06
0.07
0.075
0.055
0.05
0.035
0.02
0.02
0.02
-0.005
-0.025
-0.045
-0.095
-0.12
-0.115
-0.13
-0.14
-0.16
-0.19
-0.2
-0.2
-0.205
-0.215
-0.22
-0.24
-0.225
-0.225
-0.23
-0.255
-0.25
-0.25
-0.26
-0.255
-0.245
-0.24
-0.27
-0.255
-0.245
-0.235
-0.23
-0.24
-0.26
-0.275
-0.27
-0.265
-0.24
-0.26
-0.275
-0.265
-0.26
-0.26
-0.27
-0.25
-0.25
-0.245
-0.26
-0.25
-0.26
-0.28
-0.275
-0.275
-0.275
-0.25
-0.255
-0.26
-0.265
-0.25
-0.235
-0.215
-0.225
-0.235
-0.25
-0.24
-0.215
-0.19
-0.175
-0.19
-0.2
-0.195
-0.17
-0.16
-0.17
-0.17
-0.18
-0.17
-0.175
-0.165
-0.16
-0.175
-0.19
-0.195
-0.195
-0.175
-0.195
-0.195
-0.22
-0.225
-0.225
-0.21
-0.205
-0.215
-0.225
-0.22
-0.215
-0.19
-0.2
-0.215
-0.25
-0.275
-0.285
-0.3
-0.28
-0.295
-0.295
-0.295
-0.29
-0.275
-0.285
-0.295
-0.3
-0.305
-0.285
-0.27
-0.27
-0.3
-0.305
-0.3
-0.285
-0.27
-0.28
-0.29
-0.32
-0.355
-0.365
-0.34
-0.305
-0.25
-0.155
0.02
0.255
0.49
0.765
0.975
1.035
0.92
0.67
0.33
-0.1
-0.565
-0.84
-0.875
-0.815
-0.74
-0.65
-0.57
-0.485
-0.435
-0.385
-0.375
-0.34
-0.33
-0.315
-0.3
-0.3
-0.305
-0.31
-0.295
-0.3
-0.315
-0.305
-0.29
-0.285
-0.295
-0.3
-0.29
-0.265
-0.25
-0.24
-0.25
-0.255
-0.25
-0.24
-0.225
-0.23
-0.22
-0.22
-0.215
-0.205
-0.195
-0.185
-0.175
-0.185
-0.18
-0.155
-0.14
-0.155
-0.145
-0.125
-0.12
-0.12
-0.105
-0.1
-0.095
-0.1
-0.095
-0.07
-0.035
-0.035
-0.035
-0.025
-0.02
0.015
0.035
0.04
0.045
0.025
0.04
0.065
0.055
0.065
0.055
0.045
0.07
0.08
0.075
0.07
0.07
0.065
0.07
0.065
0.065
0.065
0.05
0.04
0.045
0.04
0.03
0.025
0
-0.025
-0.03
-0.03
-0.04
-0.05
-0.085
-0.095
-0.105
-0.11
-0.115
-0.115
-0.14
-0.165
-0.16
-0.15
-0.15
-0.165
-0.17
-0.175
-0.175
-0.155
-0.15
-0.155
-0.165
-0.18
-0.185
-0.18
-0.16
-0.16
-0.165
-0.175
-0.175
-0.155
-0.14
-0.145
-0.15
-0.155
-0.155
-0.16
-0.15
-0.14
-0.16
-0.175
-0.155
-0.14
-0.125
-0.11
-0.135
-0.15
-0.15
-0.14
-0.135
-0.12
-0.125
-0.13
-0.14
-0.13
-0.13
-0.12
-0.14
-0.135
-0.135
-0.115
-0.1
-0.075
-0.08
-0.08
-0.08
-0.075
-0.07
-0.075
-0.065
-0.07
-0.065
-0.055
-0.055
-0.065
-0.08
-0.095
-0.09
-0.08
-0.075
-0.065
-0.08
-0.095
-0.095
-0.09
-0.1
-0.1
-0.13
-0.13
-0.135
-0.115
-0.095
-0.075
-0.07
-0.085
-0.105
-0.125
-0.145
-0.16
-0.18
-0.185
-0.195
-0.165
-0.16
-0.16
-0.18
-0.175
-0.175
-0.175
-0.16
-0.165
-0.18
-0.2
-0.195
-0.18
-0.17
-0.165
-0.185
-0.2
-0.215
-0.225
-0.225
-0.21
-0.155
-0.045
0.135
0.335
0.595
0.87
1.12
1.31
1.355
1.195
0.835
0.365
-0.175
-0.63
-0.8
-0.73
-0.595
-0.465
-0.38
-0.335
-0.29
-0.24
-0.22
-0.22
-0.23
-0.245
-0.225
-0.22
-0.21
-0.195
-0.205
-0.215
-0.225
-0.215
-0.2
-0.2
-0.205
-0.205
-0.21
-0.2
-0.175
-0.17
-0.175
-0.165
-0.155
-0.135
-0.13
-0.14
-0.15
-0.14
-0.14
-0.13
-0.12
-0.115
-0.11
-0.11
-0.095
-0.095
-0.085
-0.075
-0.08
-0.07
-0.065
-0.055
-0.035
-0.01
-0.005
-0.005
0.005
0.03
0.06
0.065
0.055
0.045
0.05
0.085
0.1
0.11
0.105
0.1
0.105
0.105
0.11
0.115
0.115
0.115
0.115
0.12
0.135
0.14
0.135
0.12
0.105
0.12
0.115
0.12
0.075
0.055
0.045
0.055
0.06
0.035
0
-0.035
-0.055
-0.035
-0.04
-0.045
-0.065
-0.09
-0.095
-0.105
-0.08
-0.095
-0.12
-0.135
-0.13
-0.115
-0.115
-0.115
-0.12
-0.14
-0.14
-0.12
-0.12
-0.13
-0.13
-0.135
-0.15
-0.135
-0.135
-0.13
-0.135
-0.14
-0.15
-0.145
-0.14
-0.14
-0.15
-0.15
-0.165
-0.15
-0.14
-0.145
-0.135
-0.16
-0.17
-0.14
-0.155
-0.125
-0.135
-0.155
-0.165
-0.145
-0.125
-0.14
-0.15
-0.155
-0.16
-0.15
-0.145
-0.14
-0.135
-0.135
-0.125
-0.135
-0.12
-0.125
-0.11
-0.11
-0.1
-0.09
-0.08
-0.075
-0.07
-0.07
-0.075
-0.055
-0.055
-0.07
-0.08
-0.08
-0.07
-0.07
-0.07
-0.09
-0.1
-0.11
-0.11
-0.14
-0.13
-0.135
-0.155
-0.145
-0.14
-0.135
-0.135
-0.125
-0.145
-0.135
-0.14
-0.13
-0.14
-0.165
-0.185
-0.205
-0.22
-0.22
-0.2
-0.21
-0.215
-0.23
-0.21
-0.21
-0.21
-0.205
-0.205
-0.205
-0.21
-0.2
-0.2
-0.195
-0.215
-0.24
-0.215
-0.215
-0.23
-0.27
-0.29
-0.28
-0.24
-0.125
0.015
0.185
0.385
0.63
0.89
1.135
1.235
1.145
0.845
0.465
0.05
-0.395
-0.725
-0.825
-0.77
-0.68
-0.57
-0.46
-0.38
-0.32
-0.285
-0.265
-0.255
-0.24
-0.23
-0.22
-0.23
-0.245
-0.245
-0.24
-0.245
-0.245
-0.23
-0.23
-0.215
-0.21
-0.215
-0.215
-0.225
-0.225
-0.215
-0.195
-0.195
-0.195
-0.205
-0.2
-0.19
-0.18
-0.16
-0.155
-0.17
-0.155
-0.16
-0.155
-0.14
-0.12
-0.135
-0.12
-0.11
-0.105
-0.085
-0.09
-0.07
-0.065
-0.05
-0.035
-0.005
-0.005
-0.01
-0.01
0.015
0.03
0.05
0.07
0.065
0.06
0.065
0.09
0.095
0.1
0.1
0.08
0.095
0.115
0.12
0.125
0.12
0.105
0.105
0.12
0.11
0.125
0.09
0.09
0.085
0.075
0.085
0.065
0.045
0.01
-0.005
-0.015
-0.02
-0.045
-0.055
-0.09
-0.09
-0.1
-0.085
-0.1
-0.13
-0.145
-0.155
-0.15
-0.135
-0.13
-0.14
-0.15
-0.155
-0.155
-0.14
-0.135
-0.15
-0.165
-0.17
-0.155
-0.15
-0.15
-0.165
-0.165
-0.155
-0.15
-0.145
-0.15
-0.17
-0.17
-0.18
-0.165
-0.155
-0.15
-0.165
-0.165
-0.175
-0.165
-0.145
-0.155
-0.165
-0.17
-0.16
-0.145
-0.15
-0.14
-0.15
-0.17
-0.165
-0.155
-0.13
-0.145
-0.145
-0.14
-0.145
-0.115
-0.1
-0.09
-0.095
-0.105
-0.11
-0.09
-0.07
-0.06
-0.055
-0.075
-0.075
-0.075
-0.08
-0.065
-0.075
-0.08
-0.085
-0.075
-0.09
-0.11
-0.125
-0.12
-0.135
-0.135
-0.13
-0.13
-0.145
-0.16
-0.16
-0.135
-0.12
-0.125
-0.15
-0.18
-0.18
-0.185
-0.19
-0.205
-0.22
-0.22
-0.22
-0.21
-0.205
-0.2
-0.22
-0.22
-0.205
-0.205
-0.21
-0.2
-0.205
-0.21
-0.2
-0.19
-0.205
-0.215
-0.23
-0.255
-0.29
-0.29
-0.26
-0.19
-0.095
0.045
0.225
0.465
0.725
0.985
1.155
1.18
0.995
0.69
0.31
-0.135
-0.595
-0.855
-0.85
-0.725
-0.575
-0.475
-0.38
-0.34
-0.31
-0.26
-0.225
-0.22
-0.235
-0.24
-0.23
-0.22
-0.22
-0.235
-0.245
-0.24
-0.235
-0.23
-0.21
-0.2
-0.21
-0.225
-0.225
-0.21
-0.195
-0.2
-0.21
-0.2
-0.205
-0.185
-0.18
-0.17
-0.17
-0.175
-0.17
-0.16
-0.145
-0.14
-0.145
-0.14
-0.135
-0.11
-0.085
-0.07
-0.08
-0.065
-0.055
-0.035
-0.025
-0.025
-0.035
-0.005
0
0.015
0.035
0.03
0.05
0.035
0.05
0.06
0.08
0.075
0.08
0.075
0.065
0.095
0.11
0.12
0.115
0.1
0.1
0.11
0.125
0.13
0.12
0.105
0.11
0.12
0.115
0.095
0.085
0.055
0.04
0.04
0.045
0.025
0.005
-0.01
-0.04
-0.04
-0.045
-0.045
-0.07
-0.09
-0.105
-0.095
-0.09
-0.1
-0.125
-0.145
-0.145
-0.145
-0.12
-0.12
-0.155
-0.17
-0.175
-0.17
-0.155
-0.155
-0.15
-0.15
-0.175
-0.155
-0.14
-0.135
-0.14
-0.145
-0.15
-0.15
-0.135
-0.13
-0.15
-0.15
-0.155
-0.15
-0.14
-0.125
-0.135
-0.14
-0.155
-0.155
-0.15
-0.14
-0.16
-0.165
-0.16
-0.15
-0.135
-0.145
-0.155
-0.165
-0.16
-0.15
-0.145
-0.155
-0.15
-0.18
-0.18
-0.155
-0.14
-0.115
-0.115
-0.115
-0.095
-0.09
-0.09
-0.075
-0.075
-0.08
-0.065
-0.05
-0.055
-0.065
-0.07
-0.09
-0.1
-0.09
-0.055
-0.075
-0.105
-0.115
-0.135
-0.13
-0.135
-0.125
-0.14
-0.14
-0.15
-0.16
-0.135
-0.12
-0.13
-0.15
-0.16
-0.175
-0.18
-0.19
-0.215
-0.235
-0.235
-0.215
-0.21
-0.22
-0.235
-0.245
-0.24
-0.22
-0.215
-0.215
-0.215
-0.22
-0.225
-0.225
-0.2
-0.2
-0.225
-0.25
-0.265
-0.28
-0.285
-0.27
-0.25
-0.19
-0.075
0.085
0.3
0.565
0.82
1.04
1.145
1.07
0.8
0.425
-0.02
-0.495
-0.82
-0.89
-0.775
-0.645
-0.535
-0.425
-0.345
-0.3
-0.255
-0.24
-0.235
-0.245
-0.245
-0.235
-0.23
-0.23
-0.23
-0.235
-0.235
-0.225
-0.22
-0.21
-0.22
-0.22
-0.21
-0.19
-0.18
-0.175
-0.185
-0.195
-0.195
-0.175
-0.16
-0.165
-0.165
-0.165
-0.155
-0.135
-0.135
-0.14
-0.15
-0.15
-0.15
-0.13
-0.105
-0.115
-0.105
-0.115
-0.085
-0.055
-0.035
-0.015
-0.035
-0.03
-0.025
0
0.01
0.03
0.03
0.035
0.045
0.035
0.065
0.08
0.075
0.085
0.09
0.105
0.115
0.095
0.12
0.105
0.1
0.105
0.105
0.1
0.095
0.1
0.085
0.085
0.085
0.08
0.055
0.045
0.025
0.02
0.01
0
-0.01
-0.03
-0.04
-0.07
-0.07
-0.09
-0.095
-0.115
-0.11
-0.105
-0.11
-0.12
-0.135
-0.155
-0.16
-0.155
-0.165
-0.165
-0.185
-0.2
-0.205
-0.19
-0.175
-0.175
-0.2
-0.21
-0.205
-0.185
-0.155
-0.145
-0.16
-0.18
-0.175
-0.175
-0.16
-0.155
-0.18
-0.185
-0.165
-0.145
-0.13
-0.135
-0.175
-0.18
-0.19
-0.165
-0.145
-0.15
-0.145
-0.175
-0.18
-0.175
-0.16
-0.14
-0.145
-0.165
-0.175
-0.175
-0.16
-0.17
-0.185
-0.185
-0.165
-0.125
-0.115
-0.11
-0.12
-0.115
-0.12
-0.115
-0.09
-0.09
-0.095
-0.105
-0.105
-0.095
-0.095
-0.105
-0.12
-0.135
-0.135
-0.125
-0.115
-0.135
-0.175
-0.21
-0.205
-0.165
-0.13
-0.14
-0.17
-0.2
-0.185
-0.16
-0.145
-0.155
-0.185
-0.215
-0.23
-0.23
-0.22
-0.23
-0.24
-0.23
-0.23
-0.215
-0.23
-0.23
-0.245
-0.26
-0.255
-0.24
-0.23
-0.225
-0.22
-0.215
-0.235
-0.235
-0.255
-0.275
-0.275
-0.305
-0.33
-0.3
-0.245
-0.175
-0.055
0.09
0.305
0.57
0.835
1.03
1.13
1.035
0.83
0.55
0.215
-0.245
-0.67
-0.86
-0.83
-0.75
-0.675
-0.595
-0.5
-0.43
-0.375
-0.33
-0.29
-0.295
-0.285
-0.28
-0.26
-0.26
-0.245
-0.26
-0.275
-0.29
-0.295
-0.29
-0.245
-0.235
-0.235
-0.235
-0.25
-0.255
-0.26
-0.255
-0.245
-0.235
-0.23
-0.215
-0.2
-0.21
-0.22
-0.215
-0.195
-0.185
-0.175
-0.17
-0.18
-0.165
-0.16
-0.14
-0.11
-0.095
-0.105
-0.095
-0.1
-0.08
-0.04
-0.04
-0.045
-0.04
-0.02
-0.015
0.01
0.015
0.015
0.01
0.015
0.04
0.06
0.065
0.05
0.035
0.05
0.07
0.085
0.065
0.05
0.04
0.055
0.065
0.085
0.07
0.065
0.05
0.04
0.04
0.045
0.04
0.01
-0.015
-0.03
-0.04
-0.045
-0.07
-0.09
-0.105
-0.14
-0.155
-0.16
-0.16
-0.18
-0.2
-0.205
-0.2
-0.205
-0.215
-0.205
-0.22
-0.23
-0.225
-0.21
-0.205
-0.225
-0.225
-0.21
-0.195
-0.19
-0.21
-0.215
-0.225
-0.22
-0.21
-0.185
-0.195
-0.205
-0.22
-0.21
-0.18
-0.165
-0.175
-0.18
-0.185
-0.185
-0.185
-0.185
-0.19
-0.195
-0.2
-0.195
-0.18
-0.16
-0.15
-0.16
-0.175
-0.18
-0.165
-0.155
-0.135
-0.13
-0.145
-0.15
-0.135
-0.125
-0.125
-0.145
-0.16
-0.155
-0.145
-0.145
-0.15
-0.175
-0.18
-0.18
-0.165
-0.155
-0.165
-0.195
-0.215
-0.225
-0.23
-0.205
-0.205
-0.225
-0.22
-0.215
-0.2
-0.2
-0.205
-0.23
-0.245
-0.27
-0.27
-0.255
-0.26
-0.28
-0.295
-0.28
-0.26
-0.26
-0.27
-0.285
-0.275
-0.265
-0.25
-0.23
-0.235
-0.275
-0.27
-0.27
-0.265
-0.25
-0.255
-0.3
-0.33
-0.36
-0.335
-0.265
-0.185
-0.055
0.105
0.335
0.62
0.89
1.095
1.16
1.03
0.745
0.37
-0.06
-0.54
-0.855
-0.925
-0.855
-0.74
-0.63
-0.525
-0.435
-0.37
-0.335
-0.295
-0.27
-0.255
-0.26
-0.26
-0.26
-0.25
-0.24
-0.245
-0.26
-0.26
-0.26
-0.24
-0.24
-0.245
-0.245
-0.245
-0.245
-0.235
-0.235
-0.23
-0.23
-0.22
-0.205
-0.19
-0.175
-0.18
-0.185
-0.19
-0.185
-0.165
-0.16
-0.155
-0.155
-0.14
-0.145
-0.14
-0.11
-0.095
-0.095
-0.075
-0.06
-0.035
-0.03
-0.02
-0.015
-0.005
0.015
0.02
0.025
0.025
0.035
0.03
0.04
0.06
0.08
0.07
0.065
0.055
0.06
0.08
0.105
0.11
0.09
0.09
0.085
0.1
0.1
0.085
0.075
0.075
0.065
0.08
0.095
0.075
0.055
0.045
0.015
0.01
-0.01
-0.03
-0.05
-0.07
-0.095
-0.08
-0.08
-0.09
-0.095
-0.1
-0.13
-0.13
-0.125
-0.14
-0.14
-0.15
-0.16
-0.16
-0.155
-0.14
-0.16
-0.175
-0.18
-0.165
-0.145
-0.15
-0.17
-0.17
-0.165
-0.14
-0.145
-0.145
-0.15
-0.15
-0.16
-0.145
-0.135
-0.14
-0.155
-0.155
-0.16
-0.16
-0.125
-0.135
-0.145
-0.15
-0.15
-0.15
-0.14
-0.15
-0.15
-0.155
-0.17
-0.14
-0.125
-0.13
-0.155
-0.17
-0.16
-0.14
-0.135
-0.14
-0.155
-0.165
-0.16
-0.12
-0.1
-0.085
-0.085
-0.085
-0.1
-0.105
-0.08
-0.08
-0.06
-0.065
-0.06
-0.055
-0.04
-0.065
-0.07
-0.075
-0.08
-0.065
-0.065
-0.07
-0.095
-0.105
-0.115
-0.125
-0.125
-0.12
-0.11
-0.125
-0.14
-0.115
-0.105
-0.105
-0.12
-0.145
-0.15
-0.15
-0.15
-0.16
-0.195
-0.19
-0.205
-0.185
-0.195
-0.195
-0.22
-0.205
-0.22
-0.2
-0.17
-0.18
-0.18
-0.195
-0.215
-0.195
-0.2
-0.195
-0.215
-0.22
-0.225
-0.225
-0.22
-0.245
-0.275
-0.26
-0.215
-0.095
0.065
0.25
0.49
0.725
0.99
1.235
1.33
1.225
0.925
0.545
0.11
-0.35
-0.7
-0.85
-0.825
-0.705
-0.595
-0.47
-0.37
-0.335
-0.29
-0.275
-0.25
-0.22
-0.2
-0.195
-0.205
-0.225
-0.245
-0.215
-0.205
-0.205
-0.24
-0.23
-0.23
-0.215
-0.205
-0.205
-0.23
-0.23
-0.235
-0.205
-0.185
-0.18
-0.185
-0.195
-0.195
-0.17
-0.15
-0.155
-0.155
-0.155
-0.15
-0.13
-0.11
-0.105
-0.115
-0.1
-0.095
-0.085
-0.065
-0.08
-0.075
-0.07
-0.075
-0.045
-0.03
-0.02
-0.015
-0.005
-0.015
0.02
0.035
0.06
0.035
0.03
0.035
0.055
0.1
0.1
0.095
0.085
0.095
0.115
0.125
0.125
0.115
0.11
0.1
0.12
0.125
0.12
0.11
0.1
0.09
0.105
0.12
0.115
0.1
0.09
0.055
0.04
0.035
0.02
0.01
-0.015
-0.03
-0.04
-0.05
-0.055
-0.075
-0.095
-0.1
-0.105
-0.095
-0.105
-0.12
-0.125
-0.14
-0.14
-0.135
-0.125
-0.16
-0.155
-0.16
-0.14
-0.135
-0.14
-0.155
-0.155
-0.165
-0.16
-0.135
-0.145
-0.16
-0.16
-0.16
-0.14
-0.14
-0.135
-0.16
-0.145
-0.155
-0.15
-0.13
-0.13
-0.13
-0.14
-0.15
-0.135
-0.12
-0.13
-0.135
-0.15
-0.15
-0.135
-0.115
-0.13
-0.15
-0.145
-0.15
-0.13
-0.125
-0.125
-0.14
-0.145
-0.15
-0.14
-0.125
-0.13
-0.14
-0.125
-0.1
-0.08
-0.055
-0.09
-0.11
-0.095
-0.07
-0.075
-0.05
-0.065
-0.065
-0.085
-0.075
-0.075
-0.06
-0.065
-0.095
-0.11
-0.115
-0.1
-0.09
-0.095
-0.135
-0.14
-0.14
-0.12
-0.125
-0.12
-0.11
-0.115
-0.12
-0.12
-0.125
-0.12
-0.145
-0.185
-0.19
-0.18
-0.165
-0.155
-0.17
-0.19
-0.205
-0.18
-0.175
-0.185
-0.19
-0.195
-0.205
-0.2
-0.185
-0.175
-0.17
-0.195
-0.2
-0.205
-0.175
-0.165
-0.2
-0.24
-0.28
-0.275
-0.235
-0.16
-0.06
0.095
0.285
0.54
0.8
1.055
1.21
1.185
0.97
0.615
0.195
-0.295
-0.715
-0.85
-0.79
-0.63
-0.495
-0.39
-0.34
-0.3
-0.265
-0.235
-0.205
-0.21
-0.22
-0.22
-0.205
-0.21
-0.19
-0.2
-0.205
-0.215
-0.2
-0.19
-0.195
-0.185
-0.195
-0.195
-0.205
-0.185
-0.165
-0.165
-0.19
-0.195
-0.185
-0.18
-0.17
-0.16
-0.155
-0.15
-0.155
-0.135
-0.115
-0.12
-0.12
-0.115
-0.115
-0.085
-0.065
-0.055
-0.07
-0.065
-0.04
-0.025
-0.015
-0.005
-0.015
-0.005
0.005
0.02
0.025
0.03
0.035
0.035
0.05
0.065
0.085
0.1
0.095
0.1
0.095
0.11
0.12
0.135
0.13
0.105
0.105
0.105
0.135
0.13
0.13
0.11
0.12
0.12
0.14
0.125
0.105
0.1
0.08
0.08
0.09
0.09
0.06
0.015
0.01
0
0
-0.02
-0.055
-0.075
-0.085
-0.085
-0.08
-0.095
-0.115
-0.115
-0.12
-0.105
-0.105
-0.115
-0.12
-0.155
-0.145
-0.15
-0.14
-0.14
-0.155
-0.17
-0.15
-0.15
-0.125
-0.13
-0.125
-0.145
-0.145
-0.13
-0.125
-0.115
-0.13
-0.14
-0.14
-0.14
-0.125
-0.13
-0.155
-0.155
-0.15
-0.15
-0.125
-0.14
-0.155
-0.155
-0.155
-0.15
-0.135
-0.15
-0.175
-0.175
-0.18
-0.165
-0.15
-0.155
-0.165
-0.17
-0.17
-0.15
-0.145
-0.145
-0.16
-0.165
-0.15
-0.125
-0.095
-0.075
-0.105
-0.11
-0.11
-0.11
-0.09
-0.09
-0.085
-0.115
-0.11
-0.11
-0.105
-0.085
-0.1
-0.12
-0.125
-0.125
-0.11
-0.125
-0.125
-0.15
-0.185
-0.18
-0.17
-0.16
-0.165
-0.175
-0.18
-0.16
-0.14
-0.135
-0.165
-0.18
-0.2
-0.205
-0.22
-0.22
-0.23
-0.235
-0.255
-0.235
-0.235
-0.23
-0.255
-0.265
-0.26
-0.25
-0.235
-0.235
-0.235
-0.24
-0.255
-0.23
-0.235
-0.23
-0.235
-0.255
-0.27
-0.285
-0.295
-0.32
-0.34
-0.34
-0.315
-0.24
-0.11
0.035
0.22
0.42
0.66
0.915
1.09
1.1
0.91
0.63
0.26
-0.185
-0.62
-0.89
-0.93
-0.855
-0.735
-0.615
-0.505
-0.43
-0.39
-0.36
-0.345
-0.325
-0.305
-0.295
-0.295
-0.3
-0.295
-0.28
-0.275
-0.27
-0.26
-0.265
-0.28
-0.265
-0.255
-0.265
-0.28
-0.29
-0.28
-0.26
-0.25
-0.235
-0.25
-0.265
-0.255
-0.245
-0.24
-0.235
-0.245
-0.25
-0.26
-0.235
-0.21
-0.19
-0.19
-0.205
-0.19
-0.165
-0.15
-0.15
-0.135
-0.13
-0.125
-0.095
-0.08
-0.075
-0.065
-0.06
-0.075
-0.035
-0.035
-0.02
-0.025
-0.02
-0.015
-0.005
0.01
-0.015
0.005
0.02
0.025
0.04
0.07
0.055
0.045
0.04
0.04
0.04
0.06
0.075
0.055
0.05
0.035
0.04
0.04
0.03
0.01
0
-0.015
-0.015
-0.03
-0.035
-0.06
-0.08
-0.095
-0.105
-0.105
-0.12
-0.14
-0.15
-0.17
-0.18
-0.17
-0.175
-0.205
-0.22
-0.225
-0.215
-0.21
-0.2
-0.215
-0.23
-0.225
-0.23
-0.22
-0.215
-0.225
-0.245
-0.25
-0.235
-0.235
-0.235
-0.255
-0.24
-0.24
-0.245
-0.225
-0.23
-0.25
-0.28
-0.27
-0.28
-0.255
-0.24
-0.245
-0.24
-0.24
-0.215
-0.215
-0.225
-0.24
-0.265
-0.255
-0.23
-0.225
-0.245
-0.255
-0.255
-0.245
-0.23
-0.225
-0.235
-0.23
-0.235
-0.25
-0.245
-0.225
-0.24
-0.245
-0.255
-0.255
-0.235
-0.21
-0.2
-0.205
-0.19
-0.195
-0.18
-0.185
-0.185
-0.19
-0.185
-0.185
-0.185
-0.17
-0.185
-0.185
-0.19
-0.19
-0.175
-0.165
-0.19
-0.215
-0.24
-0.235
-0.23
-0.235
-0.245
-0.26
-0.265
-0.255
-0.25
-0.245
-0.23
-0.215
-0.225
-0.235
-0.245
-0.255
-0.275
-0.305
-0.345
-0.35
-0.325
-0.295
-0.3
-0.305
-0.32
-0.31
-0.27
-0.265
-0.265
-0.305
-0.32
-0.335
-0.315
-0.315
-0.3
-0.295
-0.29
-0.305
-0.29
-0.29
-0.32
-0.35
-0.385
-0.41
-0.41
-0.37
-0.325
-0.205
-0.065
0.125
0.365
0.62
0.855
1.015
1.015
0.865
0.605
0.27
-0.155
-0.625
-0.92
-0.975
-0.89
-0.8
-0.715
-0.625
-0.55
-0.485
-0.43
-0.39
-0.395
-0.36
-0.355
-0.345
-0.35
-0.34
-0.345
-0.35
-0.34
-0.34
-0.33
-0.325
-0.31
-0.32
-0.335
-0.33
-0.33
-0.315
-0.32
-0.33
-0.335
-0.33
-0.315
-0.305
-0.29
-0.29
-0.29
-0.29
-0.27
-0.25
-0.235
-0.25
-0.25
-0.245
-0.215
-0.205
-0.2
-0.205
-0.205
-0.2
-0.18
-0.145
-0.125
-0.13
-0.12
-0.1
-0.085
-0.06
-0.055
-0.065
-0.06
-0.055
-0.04
-0.035
-0.03
-0.03
-0.025
-0.02
-0.01
0.005
0.005
0
0.01
0.015
0.03
0.035
0.01
0.01
0.01
0.01
0.02
0.02
0.015
0
-0.015
-0.015
-0.01
-0.02
-0.045
-0.06
-0.09
-0.095
-0.105
-0.1
-0.115
-0.145
-0.17
-0.2
-0.19
-0.195
-0.195
-0.215
-0.25
-0.25
-0.24
-0.23
-0.24
-0.255
-0.275
-0.275
-0.27
-0.255
-0.26
-0.28
-0.275
-0.28
-0.265
-0.245
-0.25
-0.265
-0.265
-0.275
-0.245
-0.245
-0.245
-0.245
-0.255
-0.27
-0.27
-0.24
-0.225
-0.245
-0.255
-0.265
-0.24
-0.23
-0.23
-0.23
-0.25
-0.24
-0.22
-0.2
-0.215
-0.235
-0.265
-0.245
-0.23
-0.225
-0.21
-0.23
-0.22
-0.225
-0.225
-0.21
-0.215
-0.215
-0.24
-0.245
-0.235
-0.21
-0.205
-0.2
-0.19
-0.195
-0.18
-0.175
-0.18
-0.18
-0.165
-0.16
-0.165
-0.165
-0.17
-0.175
-0.18
-0.175
-0.14
-0.145
-0.17
-0.185
-0.185
-0.19
-0.2
-0.205
-0.22
-0.215
-0.225
-0.24
-0.235
-0.22
-0.21
-0.205
-0.225
-0.23
-0.235
-0.25
-0.265
-0.285
-0.305
-0.3
-0.275
-0.275
-0.295
-0.31
-0.315
-0.32
-0.295
-0.285
-0.285
-0.28
-0.275
-0.265
-0.28
-0.265
-0.27
-0.265
-0.285
-0.295
-0.295
-0.31
-0.33
-0.345
-0.345
-0.28
-0.16
-0.015
0.18
0.42
0.685
0.94
1.14
1.155
0.96
0.6
0.19
-0.275
-0.7
-0.925
-0.935
-0.835
-0.72
-0.59
-0.47
-0.375
-0.335
-0.325
-0.305
-0.3
-0.28
-0.27
-0.26
-0.285
-0.29
-0.295
-0.29
-0.295
-0.29
-0.285
-0.29
-0.27
-0.265
-0.265
-0.27
-0.27
-0.27
-0.27
-0.245
-0.245
-0.235
-0.245
-0.23
-0.245
-0.235
-0.2
-0.185
-0.175
-0.17
-0.18
-0.16
-0.17
-0.17
-0.16
-0.15
-0.125
-0.11
-0.09
-0.08
-0.07
-0.075
-0.07
-0.05
-0.025
-0.005
0.005
-0.02
-0.005
0
0.035
0.03
0.025
0.04
0.03
0.055
0.065
0.065
0.065
0.07
0.07
0.08
0.095
0.09
0.075
0.06
0.06
0.075
0.085
0.065
0.07
0.05
0.045
0.05
0.045
0.025
-0.02
-0.035
-0.04
-0.04
-0.04
-0.07
-0.08
-0.095
-0.115
-0.125
-0.125
-0.12
-0.145
-0.15
-0.175
-0.165
-0.155
-0.165
-0.185
-0.215
-0.21
-0.175
-0.155
-0.15
-0.165
-0.18
-0.19
-0.175
-0.155
-0.15
-0.155
-0.15
-0.16
-0.155
-0.145
-0.145
-0.185
-0.175
-0.18
-0.18
-0.17
-0.175
-0.185
-0.19
-0.195
-0.175
-0.155
-0.17
-0.185
-0.195
-0.19
-0.185
-0.165
-0.155
-0.165
-0.16
-0.18
-0.17
-0.15
-0.155
-0.155
-0.165
-0.175
-0.17
-0.155
-0.165
-0.165
-0.165
-0.165
-0.15
-0.14
-0.135
-0.105
-0.11
-0.135
-0.115
-0.1
-0.09
-0.095
-0.1
-0.12
-0.11
-0.105
-0.095
-0.085
-0.1
-0.12
-0.12
-0.125
-0.115
-0.115
-0.135
-0.145
-0.16
-0.155
-0.16
-0.17
-0.16
-0.155
-0.135
-0.135
-0.16
-0.18
-0.18
-0.195
-0.22
-0.22
-0.23
-0.24
-0.26
-0.255
-0.235
-0.225
-0.215
-0.22
-0.235
-0.24
-0.22
-0.225
-0.21
-0.21
-0.235
-0.235
-0.23
-0.2
-0.215
-0.225
-0.235
-0.24
-0.255
-0.275
-0.28
-0.26
-0.23
-0.15
-0.03
0.12
0.305
0.55
0.805
1.055
1.225
1.165
0.895
0.485
0.03
-0.465
-0.81
-0.895
-0.8
-0.67
-0.545
-0.455
-0.36
-0.305
-0.275
-0.24
-0.24
-0.25
-0.245
-0.235
-0.23
-0.225
-0.24
-0.24
-0.225
-0.225
-0.22
-0.225
-0.23
-0.225
-0.205
-0.195
-0.2
-0.205
-0.22
-0.2
-0.18
-0.175
-0.185
-0.165
-0.175
-0.18
-0.175
-0.15
-0.155
-0.145
-0.145
-0.15
-0.135
-0.12
-0.115
-0.095
-0.1
-0.095
-0.08
-0.05
-0.035
-0.035
-0.025
-0.025
0.015
0.03
0.03
0.03
0.025
0.035
0.05
0.06
0.08
0.09
0.095
0.09
0.105
0.095
0.105
0.1
0.095
0.11
0.11
0.125
0.115
0.12
0.12
0.115
0.1
0.105
0.09
0.085
0.07
0.04
0.035
0.035
0.015
0.01
-0.03
-0.035
-0.05
-0.065
-0.065
-0.075
-0.105
-0.115
-0.105
-0.105
-0.1
-0.105
-0.125
-0.145
-0.135
-0.11
-0.105
-0.115
-0.135
-0.145
-0.13
-0.12
-0.125
-0.135
-0.145
-0.14
-0.145
-0.125
-0.11
-0.125
-0.14
-0.135
-0.135
-0.135
-0.135
-0.14
-0.15
-0.145
-0.13
-0.11
-0.105
-0.105
-0.125
-0.13
-0.13
-0.13
-0.125
-0.15
-0.145
-0.13
-0.125
-0.11
-0.12
-0.135
-0.13
-0.135
-0.125
-0.115
-0.105
-0.11
-0.095
-0.09
-0.07
-0.055
-0.045
-0.055
-0.065
-0.085
-0.055
-0.04
-0.04
-0.065
-0.065
-0.07
-0.055
-0.055
-0.05
-0.06
-0.085
-0.085
-0.075
-0.085
-0.105
-0.135
-0.15
-0.14
-0.135
-0.12
-0.13
-0.125
-0.13
-0.135
-0.125
-0.135
-0.145
-0.16
-0.19
-0.205
-0.2
-0.19
-0.18
-0.195
-0.195
-0.215
-0.195
-0.175
-0.185
-0.185
-0.19
-0.195
-0.19
-0.18
-0.19
-0.205
-0.215
-0.215
-0.21
-0.22
-0.245
-0.26
-0.25
-0.2
-0.08
0.065
0.275
0.52
0.77
1.005
1.145
1.085
0.795
0.37
-0.105
-0.57
-0.82
-0.825
-0.705
-0.565
-0.465
-0.38
-0.305
-0.265
-0.245
-0.225
-0.235
-0.245
-0.23
-0.205
-0.2
-0.2
-0.225
-0.215
-0.21
-0.2
-0.2
-0.2
-0.21
-0.205
-0.18
-0.175
-0.17
-0.175
-0.175
-0.17
-0.16
-0.165
-0.16
-0.15
-0.16
-0.145
-0.125
-0.12
-0.1
-0.095
-0.115
-0.11
-0.075
-0.065
-0.055
-0.055
-0.06
-0.06
-0.06
-0.035
-0.025
-0.01
-0.01
-0.01
0.005
0.03
0.055
0.065
0.06
0.05
0.06
0.075
0.09
0.08
0.06
0.07
0.095
0.12
0.12
0.115
0.11
0.11
0.11
0.125
0.12
0.11
0.11
0.095
0.105
0.105
0.1
0.08
0.07
0.065
0.06
0.045
0.035
0.01
-0.03
-0.04
-0.05
-0.045
-0.05
-0.09
-0.1
-0.12
-0.12
-0.12
-0.125
-0.125
-0.135
-0.15
-0.145
-0.14
-0.135
-0.13
-0.135
-0.14
-0.15
-0.135
-0.14
-0.13
-0.14
-0.14
-0.14
-0.15
-0.14
-0.13
-0.145
-0.16
-0.15
-0.14
-0.14
-0.135
-0.16
-0.16
-0.16
-0.15
-0.15
-0.145
-0.165
-0.18
-0.175
-0.15
-0.15
-0.16
-0.17
-0.17
-0.17
-0.16
-0.16
-0.18
-0.175
-0.17
-0.15
-0.155
-0.16
-0.16
-0.16
-0.16
-0.135
-0.14
-0.13
-0.12
-0.11
-0.1
-0.085
-0.105
-0.1
-0.105
-0.09
-0.09
-0.08
-0.08
-0.08
-0.085
-0.085
-0.085
-0.09
-0.095
-0.085
-0.12
-0.125
-0.13
-0.14
-0.16
-0.165
-0.155
-0.165
-0.175
-0.18
-0.16
-0.15
-0.14
-0.175
-0.19
-0.19
-0.2
-0.225
-0.225
-0.24
-0.24
-0.24
-0.235
-0.22
-0.22
-0.225
-0.23
-0.235
-0.23
-0.225
-0.23
-0.24
-0.245
-0.24
-0.235
-0.22
-0.24
-0.265
-0.295
-0.31
-0.315
-0.3
-0.255
-0.165
-0.03
0.16
0.41
0.69
0.95
1.075
1.015
0.785
0.455
0.055
-0.425
-0.82
-0.955
-0.88
-0.745
-0.625
-0.52
-0.44
-0.385
-0.34
-0.31
-0.3
-0.285
-0.28
-0.28
-0.285
-0.265
-0.26
-0.265
-0.27
-0.285
-0.275
-0.275
-0.28
-0.275
-0.255
-0.255
-0.25
-0.23
-0.225
-0.23
-0.24
-0.235
-0.225
-0.205
-0.2
-0.19
-0.2
-0.205
-0.195
-0.17
-0.16
-0.15
-0.15
-0.155
-0.125
-0.12
-0.085
-0.08
-0.075
-0.075
-0.05
-0.035
-0.005
-0.01
-0.03
-0.04
-0.035
0.015
0.03
0.025
0.005
0.005
0.02
0.04
0.045
0.035
0.015
0.025
0.035
0.065
0.07
0.065
0.04
0.035
0.025
0.04
0.04
0.025
0
0.01
0
-0.015
-0.03
-0.055
-0.095
-0.12
-0.125
-0.15
-0.15
-0.18
-0.185
-0.2
-0.205
-0.205
-0.21
-0.23
-0.25
-0.26
-0.265
-0.255
-0.255
-0.245
-0.255
-0.255
-0.265
-0.26
-0.27
-0.28
-0.29
-0.29
-0.27
-0.26
-0.255
-0.265
-0.29
-0.27
-0.26
-0.25
-0.255
-0.26
-0.27
-0.275
-0.26
-0.25
-0.255
-0.265
-0.26
-0.27
-0.255
-0.245
-0.255
-0.26
-0.265
-0.275
-0.255
-0.245
-0.245
-0.265
-0.275
-0.28
-0.255
-0.25
-0.25
-0.26
-0.27
-0.275
-0.27
-0.25
-0.245
-0.245
-0.245
-0.235
-0.205
-0.215
-0.215
-0.23
-0.225
-0.22
-0.21
-0.195
-0.21
-0.225
-0.23
-0.225
-0.22
-0.225
-0.225
-0.225
-0.255
-0.28
-0.275
-0.275
-0.27
-0.275
-0.275
-0.28
-0.28
-0.285
-0.3
-0.315
-0.34
-0.35
-0.35
-0.335
-0.325
-0.345
-0.345
-0.365
-0.355
-0.34
-0.335
-0.34
-0.35
-0.365
-0.36
-0.34
-0.33
-0.345
-0.365
-0.37
-0.385
-0.39
-0.41
-0.41
-0.405
-0.325
-0.175
0.01
0.225
0.48
0.745
0.935
1
0.87
0.58
0.235
-0.19
-0.62
-0.95
-1.035
-0.965
-0.895
-0.82
-0.715
-0.605
-0.5
-0.455
-0.42
-0.42
-0.415
-0.385
-0.37
-0.37
-0.375
-0.4
-0.39
-0.38
-0.37
-0.345
-0.35
-0.355
-0.37
-0.365
-0.36
-0.35
-0.36
-0.36
-0.365
-0.345
-0.325
-0.32
-0.335
-0.33
-0.325
-0.315
-0.29
-0.285
-0.285
-0.29
-0.285
-0.265
-0.255
-0.235
-0.24
-0.25
-0.245
-0.23
-0.21
-0.2
-0.175
-0.17
-0.16
-0.16
-0.155
-0.125
-0.115
-0.115
-0.11
-0.085
-0.07
-0.07
-0.065
-0.065
-0.055
-0.035
-0.03
-0.025
-0.035
-0.04
-0.035
-0.025
-0.01
-0.015
-0.03
-0.025
-0.03
-0.015
-0.01
-0.015
-0.04
-0.08
-0.09
-0.095
-0.1
-0.095
-0.105
-0.13
-0.15
-0.16
-0.175
-0.19
-0.195
-0.205
-0.22
-0.215
-0.21
-0.215
-0.245
-0.275
-0.28
-0.28
-0.265
-0.26
-0.265
-0.28
-0.28
-0.265
-0.245
-0.25
-0.265
-0.275
-0.275
-0.27
-0.255
-0.255
-0.255
-0.26
-0.275
-0.25
-0.24
-0.235
-0.245
-0.26
-0.265
-0.27
-0.25
-0.23
-0.245
-0.255
-0.265
-0.24
-0.21
-0.22
-0.235
-0.24
-0.24
-0.245
-0.225
-0.23
-0.24
-0.25
-0.255
-0.265
-0.235
-0.22
-0.205
-0.23
-0.24
-0.23
-0.21
-0.215
-0.2
-0.205
-0.21
-0.19
-0.175
-0.165
-0.18
-0.175
-0.17
-0.16
-0.16
-0.16
-0.17
-0.195
-0.185
-0.185
-0.165
-0.175
-0.185
-0.205
-0.22
-0.215
-0.235
-0.24
-0.235
-0.245
-0.23
-0.245
-0.23
-0.225
-0.22
-0.235
-0.24
-0.24
-0.255
-0.26
-0.3
-0.33
-0.32
-0.305
-0.29
-0.295
-0.305
-0.31
-0.33
-0.33
-0.32
-0.32
-0.32
-0.315
-0.305
-0.285
-0.275
-0.27
-0.29
-0.295
-0.32
-0.305
-0.31
-0.34
-0.365
-0.375
-0.35
-0.26
-0.14
0.02
0.205
0.4
0.64
0.88
1.05
1.08
0.895
0.595
0.215
-0.215
-0.645
-0.915
-0.96
-0.885
-0.78
-0.655
-0.535
-0.46
-0.425
-0.415
-0.395
-0.365
-0.335
-0.31
-0.32
-0.33
-0.35
-0.325
-0.325
-0.31
-0.305
-0.33
-0.335
-0.325
-0.305
-0.315
-0.33
-0.34
-0.33
-0.32
-0.32
-0.3
-0.305
-0.32
-0.31
-0.29
-0.275
-0.275
-0.265
-0.28
-0.27
-0.26
-0.25
-0.235
-0.245
-0.26
-0.25
-0.235
-0.23
-0.205
-0.21
-0.2
-0.18
-0.16
-0.135
-0.12
-0.14
-0.115
-0.115
-0.1
-0.065
-0.04
-0.05
-0.05
-0.04
-0.03
-0.025
-0.01
-0.015
-0.02
-0.025
-0.02
0
0.01
0.01
-0.005
-0.01
-0.01
-0.005
0.015
-0.005
-0.02
-0.01
-0.015
-0.015
0
-0.02
-0.03
-0.055
-0.05
-0.045
-0.055
-0.075
-0.095
-0.12
-0.13
-0.13
-0.145
-0.18
-0.195
-0.215
-0.22
-0.21
-0.215
-0.215
-0.23
-0.25
-0.24
-0.235
-0.235
-0.245
-0.245
-0.265
-0.265
-0.26
-0.245
-0.25
-0.265
-0.27
-0.28
-0.27
-0.26
-0.27
-0.275
-0.275
-0.25
-0.25
-0.25
-0.255
-0.26
-0.285
-0.27
-0.265
-0.26
-0.27
-0.285
-0.305
-0.28
-0.275
-0.265
-0.275
-0.29
-0.29
-0.27
-0.26
-0.265
-0.275
-0.28
-0.31
-0.3
-0.285
-0.28
-0.29
-0.29
-0.28
-0.27
-0.265
-0.265
-0.295
-0.3
-0.3
-0.275
-0.255
-0.245
-0.24
-0.245
-0.235
-0.21
-0.2
-0.21
-0.215
-0.23
-0.23
-0.215
-0.2
-0.21
-0.22
-0.22
-0.225
-0.225
-0.22
-0.22
-0.215
-0.23
-0.235
-0.245
-0.235
-0.24
-0.25
-0.275
-0.285
-0.27
-0.27
-0.255
-0.275
-0.295
-0.295
-0.285
-0.255
-0.255
-0.285
-0.3
-0.335
-0.335
-0.33
-0.345
-0.355
-0.365
-0.37
-0.365
-0.34
-0.33
-0.35
-0.375
-0.39
-0.385
-0.37
-0.34
-0.345
-0.35
-0.35
-0.34
-0.345
-0.365
-0.375
-0.365
-0.37
-0.39
-0.405
-0.43
-0.445
-0.445
-0.405
-0.325
-0.195
-0.04
0.165
0.405
0.67
0.9
1.015
0.97
0.755
0.465
0.1
-0.34
-0.755
-0.955
-0.975
-0.925
-0.84
-0.725
-0.61
-0.53
-0.485
-0.47
-0.46
-0.435
-0.425
-0.4
-0.4
-0.42
-0.41
-0.385
-0.37
-0.365
-0.365
-0.375
-0.395
-0.38
-0.36
-0.35
-0.36
-0.38
-0.395
-0.38
-0.355
-0.33
-0.335
-0.36
-0.355
-0.32
-0.29
-0.295
-0.275
-0.295
-0.3
-0.29
-0.29
-0.29
-0.305
-0.31
-0.285
-0.245
-0.22
-0.205
-0.21
-0.21
-0.195
-0.18
-0.155
-0.14
-0.135
-0.15
-0.135
-0.11
-0.085
-0.065
-0.06
-0.075
-0.045
-0.035
-0.05
-0.06
-0.075
-0.075
-0.075
-0.06
-0.045
-0.02
-0.035
-0.04
-0.045
-0.03
-0.04
-0.035
-0.045
-0.05
-0.055
-0.055
-0.05
-0.075
-0.105
-0.125
-0.14
-0.145
-0.13
-0.15
-0.16
-0.21
-0.225
-0.22
-0.23
-0.23
-0.245
-0.265
-0.285
-0.28
-0.28
-0.28
-0.285
-0.285
-0.3
-0.31
-0.315
-0.31
-0.31
-0.325
-0.345
-0.335
-0.33
-0.33
-0.34
-0.345
-0.33
-0.315
-0.29
-0.285
-0.29
-0.32
-0.32
-0.325
-0.32
-0.3
-0.29
-0.305
-0.29
-0.29
-0.28
-0.27
-0.29
-0.305
-0.31
-0.32
-0.315
-0.315
-0.31
-0.31
-0.31
-0.3
-0.295
-0.275
-0.27
-0.285
-0.305
-0.325
-0.31
-0.31
-0.29
-0.305
-0.325
-0.315
-0.3
-0.28
-0.29
-0.31
-0.32
-0.305
-0.295
-0.28
-0.28
-0.28
-0.27
-0.265
-0.25
-0.26
-0.255
-0.245
-0.23
-0.225
-0.225
-0.235
-0.245
-0.265
-0.26
-0.245
-0.23
-0.23
-0.24
-0.27
-0.285
-0.27
-0.27
-0.285
-0.27
-0.28
-0.3
-0.285
-0.275
-0.265
-0.27
-0.275
-0.29
-0.275
-0.28
-0.295
-0.325
-0.355
-0.38
-0.37
-0.355
-0.355
-0.36
-0.375
-0.36
-0.34
-0.315
-0.315
-0.335
-0.355
-0.36
-0.36
-0.335
-0.35
-0.345
-0.36
-0.38
-0.37
-0.345
-0.35
-0.35
-0.385
-0.43
-0.415
-0.405
-0.35
-0.275
-0.18
-0.045
0.15
0.385
0.63
0.85
1.005
1.02
0.91
0.7
0.41
0
-0.475
-0.855
-0.975
-0.935
-0.86
-0.78
-0.705
-0.62
-0.515
-0.435
-0.415
-0.41
-0.405
-0.39
-0.37
-0.35
-0.34
-0.34
-0.365
-0.375
-0.38
-0.35
-0.345
-0.35
-0.35
-0.34
-0.325
-0.325
-0.325
-0.34
-0.335
-0.345
-0.335
-0.32
-0.315
-0.305
-0.3
-0.3
-0.3
-0.29
-0.295
-0.28
-0.3
-0.28
-0.29
-0.26
-0.25
-0.235
-0.24
-0.245
-0.23
-0.195
-0.18
-0.18
-0.185
-0.175
-0.155
-0.145
-0.16
-0.155
-0.16
-0.135
-0.11
-0.07
-0.075
-0.08
-0.07
-0.065
-0.055
-0.03
-0.025
-0.03
-0.02
-0.055
-0.035
-0.02
-0.015
-0.015
-0.025
-0.045
-0.045
-0.035
-0.035
-0.03
-0.035
-0.04
-0.045
-0.045
-0.065
-0.065
-0.07
-0.075
-0.07
-0.07
-0.09
-0.115
-0.155
-0.165
-0.165
-0.17
-0.185
-0.2
-0.225
-0.235
-0.24
-0.25
-0.245
-0.25
-0.27
-0.275
-0.275
-0.265
-0.275
-0.285
-0.29
-0.285
-0.275
-0.26
-0.265
-0.285
-0.285
-0.285
-0.275
-0.265
-0.245
-0.255
-0.275
-0.26
-0.255
-0.23
-0.24
-0.25
-0.275
-0.26
-0.255
-0.24
-0.255
-0.24
-0.24
-0.245
-0.24
-0.23
-0.235
-0.235
-0.235
-0.245
-0.24
-0.22
-0.21
-0.225
-0.245
-0.245
-0.245
-0.235
-0.225
-0.235
-0.24
-0.235
-0.225
-0.21
-0.22
-0.225
-0.23
-0.225
-0.21
-0.195
-0.17
-0.17
-0.17
-0.175
-0.165
-0.16
-0.15
-0.155
-0.16
-0.155
-0.15
-0.145
-0.16
-0.16
-0.165
-0.18
-0.175
-0.155
-0.165
-0.165
-0.195
-0.21
-0.2
-0.185
-0.2
-0.21
-0.215
-0.22
-0.195
-0.175
-0.155
-0.175
-0.21
-0.22
-0.215
-0.22
-0.24
-0.26
-0.27
-0.265
-0.26
-0.245
-0.25
-0.255
-0.26
-0.265
-0.265
-0.275
-0.235
-0.25
-0.27
-0.285
-0.255
-0.26
-0.24
-0.24
-0.26
-0.29
-0.295
-0.31
-0.315
-0.32
-0.29
-0.195
-0.055
0.14
0.375
0.63
0.89
1.13
1.29
1.29
1.07
0.655
0.145
-0.38
-0.77
-0.91
-0.84
-0.685
-0.58
-0.48
-0.405
-0.355
-0.32
-0.315
-0.3
-0.295
-0.285
-0.28
-0.275
-0.295
-0.31
-0.3
-0.275
-0.27
-0.26
-0.26
-0.27
-0.275
-0.27
-0.265
-0.245
-0.235
-0.245
-0.26
-0.25
-0.24
-0.24
-0.22
-0.22
-0.21
-0.195
-0.185
-0.165
-0.19
-0.2
-0.205
-0.18
-0.18
-0.155
-0.15
-0.145
-0.135
-0.135
-0.125
-0.12
-0.105
-0.11
-0.11
-0.085
-0.065
-0.05
-0.04
-0.025
-0.02
-0.005
0.025
0.04
0.055
0.045
0.035
0.045
0.065
0.08
0.08
0.085
0.085
0.095
0.085
0.095
0.085
0.07
0.06
0.065
0.085
0.08
0.08
0.07
0.06
0.055
0.05
0.05
0.04
0.01
-0.03
-0.035
-0.04
-0.06
-0.07
-0.09
-0.1
-0.11
-0.11
-0.11
-0.11
-0.125
-0.135
-0.145
-0.145
-0.145
-0.165
-0.185
-0.175
-0.165
-0.17
-0.15
-0.16
-0.17
-0.165
-0.165
-0.17
-0.165
-0.18
-0.195
-0.18
-0.185
-0.17
-0.155
-0.155
-0.16
-0.18
-0.17
-0.175
-0.18
-0.19
-0.19
-0.21
-0.19
-0.18
-0.145
-0.165
-0.18
-0.175
-0.155
-0.15
-0.15
-0.16
-0.175
-0.19
-0.195
-0.165
-0.16
-0.16
-0.17
-0.18
-0.18
-0.17
-0.165
-0.17
-0.17
-0.18
-0.165
-0.165
-0.14
-0.125
-0.12
-0.12
-0.1
-0.085
-0.08
-0.085
-0.09
-0.085
-0.085
-0.08
-0.075
-0.09
-0.115
-0.12
-0.13
-0.12
-0.11
-0.115
-0.13
-0.15
-0.16
-0.15
-0.15
-0.15
-0.185
-0.185
-0.175
-0.155
-0.135
-0.135
-0.15
-0.155
-0.17
-0.18
-0.185
-0.195
-0.22
-0.23
-0.21
-0.2
-0.2
-0.205
-0.23
-0.24
-0.225
-0.215
-0.21
-0.205
-0.215
-0.225
-0.22
-0.21
-0.21
-0.215
-0.225
-0.235
-0.24
-0.245
-0.275
-0.3
-0.295
-0.255
-0.145
-0.015
0.16
0.37
0.625
0.9
1.12
1.27
1.235
0.99
0.6
0.17
-0.3
-0.685
-0.855
-0.82
-0.715
-0.6
-0.49
-0.395
-0.34
-0.31
-0.285
-0.245
-0.235
-0.235
-0.245
-0.27
-0.29
-0.3
-0.275
-0.26
-0.25
-0.25
-0.265
-0.27
-0.255
-0.245
-0.24
-0.25
-0.265
-0.25
-0.23
-0.205
-0.205
-0.195
-0.2
-0.19
-0.19
-0.185
-0.195
-0.19
-0.185
-0.19
-0.185
-0.165
-0.14
-0.15
-0.145
-0.135
-0.115
-0.1
-0.09
-0.09
-0.09
-0.07
-0.045
-0.03
-0.025
0
-0.005
-0.005
0.015
0.055
0.06
0.055
0.06
0.05
0.075
0.085
0.08
0.08
0.075
0.07
0.065
0.095
0.095
0.07
0.07
0.075
0.065
0.075
0.075
0.055
0.025
0.015
0.015
0.015
0.015
-0.01
-0.045
-0.065
-0.075
-0.085
-0.09
-0.1
-0.13
-0.14
-0.145
-0.15
-0.135
-0.15
-0.155
-0.18
-0.175
-0.175
-0.175
-0.17
-0.195
-0.2
-0.19
-0.18
-0.17
-0.185
-0.185
-0.185
-0.18
-0.175
-0.17
-0.18
-0.185
-0.175
-0.17
-0.165
-0.16
-0.17
-0.18
-0.2
-0.185
-0.185
-0.185
-0.18
-0.2
-0.205
-0.215
-0.215
-0.2
-0.215
-0.21
-0.22
-0.205
-0.195
-0.185
-0.19
-0.205
-0.2
-0.21
-0.185
-0.185
-0.185
-0.195
-0.195
-0.19
-0.17
-0.165
-0.18
-0.185
-0.16
-0.135
-0.115
-0.11
-0.14
-0.155
-0.155
-0.12
-0.095
-0.085
-0.095
-0.11
-0.125
-0.125
-0.11
-0.115
-0.135
-0.155
-0.15
-0.15
-0.15
-0.15
-0.175
-0.19
-0.195
-0.175
-0.175
-0.175
-0.175
-0.17
-0.17
-0.18
-0.185
-0.2
-0.225
-0.265
-0.27
-0.265
-0.25
-0.255
-0.265
-0.285
-0.29
-0.275
-0.27
-0.255
-0.275
-0.295
-0.29
-0.29
-0.27
-0.27
-0.275
-0.285
-0.295
-0.27
-0.27
-0.28
-0.31
-0.345
-0.35
-0.335
-0.275
-0.17
-0.04
0.11
0.315
0.575
0.845
1.065
1.13
1.01
0.735
0.35
-0.065
-0.54
-0.86
-0.925
-0.83
-0.685
-0.55
-0.455
-0.395
-0.37
-0.33
-0.305
-0.29
-0.3
-0.325
-0.33
-0.325
-0.31
-0.29
-0.275
-0.28
-0.3
-0.33
-0.295
-0.28
-0.285
-0.285
-0.29
-0.275
-0.265
-0.255
-0.25
-0.25
-0.27
-0.265
-0.265
-0.23
-0.23
-0.245
-0.255
-0.255
-0.24
-0.205
-0.2
-0.195
-0.21
-0.205
-0.185
-0.155
-0.16
-0.155
-0.155
-0.145
-0.13
-0.095
-0.08
-0.07
-0.075
-0.08
-0.05
-0.035
-0.01
-0.01
-0.015
-0.01
0.02
0.015
0.025
0.015
0
0
0.03
0.055
0.06
0.05
0.015
0.02
0.03
0.045
0.05
0.035
0.015
0
0.01
0.01
0.015
-0.01
-0.04
-0.07
-0.075
-0.08
-0.09
-0.115
-0.135
-0.15
-0.165
-0.17
-0.175
-0.185
-0.2
-0.215
-0.21
-0.21
-0.215
-0.215
-0.22
-0.235
-0.23
-0.235
-0.245
-0.25
-0.24
-0.23
-0.25
-0.235
-0.21
-0.22
-0.245
-0.245
-0.23
-0.215
-0.215
-0.215
-0.24
-0.26
-0.26
-0.235
-0.225
-0.225
-0.24
-0.23
-0.24
-0.24
-0.23
-0.235
-0.235
-0.24
-0.25
-0.23
-0.235
-0.23
-0.245
-0.25
-0.25
-0.25
-0.23
-0.235
-0.235
-0.26
-0.245
-0.235
-0.24
-0.24
-0.25
-0.25
-0.24
-0.235
-0.22
-0.22
-0.225
-0.225
-0.2
-0.18
-0.185
-0.18
-0.19
-0.19
-0.18
-0.16
-0.155
-0.165
-0.175
-0.18
-0.17
-0.16
-0.165
-0.18
-0.195
-0.22
-0.205
-0.205
-0.205
-0.225
-0.235
-0.245
-0.25
-0.24
-0.245
-0.23
-0.22
-0.24
-0.245
-0.25
-0.265
-0.275
-0.325
-0.32
-0.32
-0.3
-0.29
-0.305
-0.315
-0.315
-0.325
-0.31
-0.3
-0.3
-0.315
-0.33
-0.32
-0.3
-0.295
-0.3
-0.32
-0.315
-0.315
-0.31
-0.325
-0.355
-0.37
-0.355
-0.29
-0.17
-0.025
0.165
0.41
0.65
0.905
1.035
1.035
0.825
0.515
0.15
-0.28
-0.695
-0.925
-0.95
-0.86
-0.755
-0.625
-0.535
-0.435
-0.385
-0.37
-0.35
-0.335
-0.315
-0.31
-0.32
-0.33
-0.33
-0.32
-0.33
-0.33
-0.32
-0.33
-0.31
-0.32
-0.315
-0.295
-0.305
-0.315
-0.31
-0.3
-0.29
-0.275
-0.275
-0.275
-0.285
-0.275
-0.27
-0.265
-0.245
-0.25
-0.255
-0.25
-0.225
-0.215
-0.215
-0.195
-0.2
-0.195
-0.17
-0.16
-0.16
-0.155
-0.15
-0.145
-0.125
-0.105
-0.085
-0.085
-0.095
-0.08
-0.065
-0.045
-0.035
-0.04
-0.045
-0.03
-0.02
-0.015
-0.03
-0.04
-0.025
-0.015
0.01
0.02
0.015
0.01
0.01
0.02
0.015
0.01
0.01
-0.01
-0.02
0.005
0.005
-0.005
-0.03
-0.06
-0.07
-0.085
-0.09
-0.105
-0.135
-0.155
-0.17
-0.17
-0.17
-0.165
-0.18
-0.19
-0.22
-0.23
-0.215
-0.22
-0.225
-0.23
-0.235
-0.255
-0.235
-0.23
-0.23
-0.255
-0.26
-0.255
-0.24
-0.23
-0.25
-0.24
-0.25
-0.25
-0.245
-0.235
-0.24
-0.25
-0.26
-0.265
-0.255
-0.255
-0.255
-0.24
-0.25
-0.24
-0.23
-0.22
-0.225
-0.245
-0.25
-0.255
-0.245
-0.26
-0.26
-0.25
-0.245
-0.235
-0.245
-0.23
-0.245
-0.26
-0.275
-0.27
-0.255
-0.255
-0.265
-0.28
-0.285
-0.255
-0.24
-0.235
-0.22
-0.215
-0.195
-0.2
-0.2
-0.195
-0.205
-0.205
-0.195
-0.19
-0.185
-0.165
-0.18
-0.195
-0.195
-0.205
-0.215
-0.205
-0.195
-0.23
-0.23
-0.25
-0.245
-0.235
-0.255
-0.26
-0.28
-0.255
-0.26
-0.245
-0.245
-0.245
-0.26
-0.255
-0.26
-0.265
-0.275
-0.33
-0.335
-0.34
-0.33
-0.325
-0.325
-0.34
-0.36
-0.355
-0.35
-0.33
-0.35
-0.34
-0.355
-0.34
-0.315
-0.3
-0.315
-0.335
-0.33
-0.33
-0.315
-0.305
-0.34
-0.375
-0.39
-0.385
-0.355
-0.3
-0.21
-0.105
0.085
0.31
0.59
0.815
0.965
0.97
0.8
0.515
0.185
-0.215
-0.66
-0.97
-1.03
-0.935
-0.815
-0.695
-0.61
-0.525
-0.47
-0.44
-0.41
-0.385
-0.395
-0.39
-0.375
-0.37
-0.35
-0.35
-0.355
-0.35
-0.36
-0.35
-0.335
-0.335
-0.35
-0.35
-0.35
-0.345
-0.33
-0.305
-0.315
-0.3
-0.315
-0.305
-0.29
-0.275
-0.26
-0.27
-0.27
-0.27
-0.265
-0.26
-0.255
-0.25
-0.24
-0.235
-0.24
-0.225
-0.21
-0.195
-0.19
-0.15
-0.145
-0.145
-0.125
-0.125
-0.13
-0.125
-0.115
-0.11
-0.105
-0.105
-0.105
-0.09
-0.07
-0.045
-0.04
-0.05
-0.045
-0.02
0.005
-0.01
-0.03
-0.05
-0.06
-0.04
-0.035
-0.025
-0.025
-0.04
-0.04
-0.02
-0.03
-0.035
-0.07
-0.085
-0.09
-0.1
-0.125
-0.14
-0.175
-0.19
-0.2
-0.195
-0.205
-0.215
-0.245
-0.265
-0.285
-0.28
-0.295
-0.285
-0.3
-0.305
-0.325
-0.31
-0.285
-0.26
-0.3
-0.31
-0.31
-0.33
-0.3
-0.295
-0.285
-0.3
-0.315
-0.305
-0.295
-0.28
-0.28
-0.285
-0.295
-0.29
-0.28
-0.27
-0.28
-0.29
-0.295
-0.28
-0.275
-0.275
-0.29
-0.285
-0.29
-0.305
-0.295
-0.285
-0.29
-0.28
-0.295
-0.275
-0.265
-0.245
-0.25
-0.27
-0.285
-0.285
-0.28
-0.275
-0.27
-0.27
-0.26
-0.245
-0.225
-0.21
-0.22
-0.235
-0.23
-0.23
-0.21
-0.205
-0.2
-0.215
-0.235
-0.225
-0.215
-0.205
-0.205
-0.215
-0.23
-0.235
-0.225
-0.25
-0.255
-0.255
-0.27
-0.255
-0.24
-0.255
-0.26
-0.265
-0.265
-0.28
-0.265
-0.275
-0.295
-0.33
-0.335
-0.33
-0.325
-0.32
-0.335
-0.35
-0.35
-0.345
-0.33
-0.34
-0.34
-0.37
-0.365
-0.355
-0.345
-0.315
-0.315
-0.32
-0.33
-0.34
-0.345
-0.38
-0.4
-0.38
-0.285
-0.11
0.13
0.45
0.78
1.01
1
0.705
0.22
-0.395
-0.905
-1.08
-0.965
-0.81
-0.655
-0.54
-0.45
-0.41
-0.39
-0.37
-0.345
-0.325
-0.33
-0.345
-0.355
-0.35
-0.34
-0.325
-0.325
-0.335
-0.33
-0.315
-0.31
-0.3
-0.3
-0.3
-0.305
-0.3
-0.285
-0.275
-0.27
-0.27
-0.27
-0.27
-0.25
-0.245
-0.22
-0.23
-0.22
-0.215
-0.19
-0.17
-0.155
-0.155
-0.155
-0.155
-0.15
-0.135
-0.125
-0.13
-0.11
-0.1
-0.08
-0.06
-0.065
-0.06
-0.05
-0.03
-0.015
0
0
0.01
0.01
0.015
0.01
0
-0.01
0
0.02
0.03
0.035
0.05
0.05
0.04
0.005
0.005
0
0
-0.005
-0.01
-0.025
-0.035
-0.05
-0.065
-0.085
-0.105
-0.11
-0.125
-0.13
-0.13
-0.14
-0.155
-0.18
-0.185
-0.19
-0.175
-0.18
-0.195
-0.215
-0.225
-0.205
-0.205
-0.19
-0.195
-0.21
-0.215
-0.21
-0.195
-0.19
-0.205
-0.2
-0.2
-0.2
-0.2
-0.2
-0.215
-0.225
-0.2
-0.195
-0.195
-0.2
-0.215
-0.21
-0.185
-0.185
-0.16
-0.155
-0.17
-0.185
-0.18
-0.18
-0.17
-0.175
-0.2
-0.205
-0.185
-0.18
-0.15
-0.15
-0.175
-0.175
-0.175
-0.17
-0.155
-0.16
-0.185
-0.21
-0.2
-0.175
-0.18
-0.19
-0.2
-0.18
-0.165
-0.14
-0.13
-0.135
-0.14
-0.145
-0.145
-0.135
-0.11
-0.11
-0.11
-0.13
-0.15
-0.145
-0.14
-0.115
-0.125
-0.14
-0.145
-0.125
-0.11
-0.125
-0.155
-0.175
-0.18
-0.18
-0.175
-0.175
-0.185
-0.205
-0.19
-0.185
-0.16
-0.155
-0.18
-0.195
-0.205
-0.215
-0.225
-0.24
-0.255
-0.26
-0.255
-0.24
-0.235
-0.24
-0.27
-0.265
-0.255
-0.27
-0.245
-0.265
-0.27
-0.26
-0.26
-0.255
-0.24
-0.25
-0.255
-0.26
-0.275
-0.275
-0.295
-0.315
-0.32
-0.27
-0.185
-0.055
0.125
0.33
0.57
0.82
1.04
1.16
1.075
0.815
0.46
0.035
-0.425
-0.785
-0.905
-0.845
-0.73
-0.625
-0.51
-0.4
-0.355
-0.315
-0.3
-0.295
-0.3
-0.285
-0.275
-0.27
-0.27
-0.285
-0.3
-0.29
-0.27
-0.26
-0.275
-0.275
-0.27
-0.25
-0.24
-0.25
-0.25
-0.26
-0.245
-0.235
-0.23
-0.225
-0.225
-0.235
-0.23
-0.21
-0.205
-0.19
-0.2
-0.21
-0.19
-0.175
-0.165
-0.17
-0.175
-0.165
-0.145
-0.13
-0.11
-0.105
-0.1
-0.125
-0.105
-0.09
-0.06
-0.05
-0.06
-0.05
-0.05
-0.035
-0.005
0.015
0.04
0.03
0.035
0.045
0.04
0.035
0.03
0.035
0.04
0.055
0.045
0.035
0.045
0.035
0.04
0.06
0.065
0.065
0.045
0.04
0.04
0.045
0.035
0.015
-0.01
-0.04
-0.03
-0.035
-0.04
-0.065
-0.075
-0.1
-0.105
-0.105
-0.105
-0.13
-0.165
-0.185
-0.19
-0.185
-0.18
-0.195
-0.2
-0.22
-0.2
-0.2
-0.18
-0.195
-0.2
-0.21
-0.21
-0.205
-0.2
-0.21
-0.23
-0.245
-0.235
-0.21
-0.205
-0.2
-0.215
-0.225
-0.25
-0.205
-0.18
-0.18
-0.215
-0.235
-0.25
-0.245
-0.235
-0.235
-0.235
-0.23
-0.23
-0.22
-0.205
-0.205
-0.215
-0.23
-0.225
-0.24
-0.225
-0.21
-0.215
-0.235
-0.225
-0.22
-0.225
-0.22
-0.215
-0.215
-0.225
-0.175
-0.14
-0.14
-0.155
-0.17
-0.18
-0.17
-0.16
-0.15
-0.145
-0.165
-0.175
-0.155
-0.145
-0.13
-0.145
-0.17
-0.2
-0.19
-0.175
-0.185
-0.215
-0.225
-0.235
-0.23
-0.22
-0.225
-0.24
-0.235
-0.215
-0.18
-0.175
-0.18
-0.21
-0.235
-0.255
-0.285
-0.29
-0.31
-0.31
-0.32
-0.335
-0.33
-0.315
-0.29
-0.3
-0.31
-0.33
-0.3
-0.295
-0.305
-0.31
-0.31
-0.305
-0.31
-0.295
-0.3
-0.315
-0.32
-0.34
-0.36
-0.37
-0.375
-0.35
-0.285
-0.145
0.025
0.22
0.445
0.69
0.915
1.085
1.14
0.995
0.72
0.355
-0.05
-0.47
-0.8
-0.92
-0.905
-0.805
-0.73
-0.625
-0.525
-0.46
-0.41
-0.37
-0.355
-0.335
-0.325
-0.325
-0.32
-0.335
-0.325
-0.32
-0.31
-0.305
-0.305
-0.32
-0.32
-0.32
-0.305
-0.305
-0.3
-0.305
-0.3
-0.3
-0.29
-0.275
-0.28
-0.285
-0.285
-0.285
-0.265
-0.265
-0.26
-0.255
-0.255
-0.255
-0.24
-0.225
-0.195
-0.205
-0.22
-0.215
-0.19
-0.175
-0.17
-0.17
-0.165
-0.16
-0.14
-0.11
-0.11
-0.11
-0.12
-0.1
-0.09
-0.055
-0.045
-0.045
-0.045
-0.03
-0.005
0.01
0.01
0.015
0.015
0.025
0.03
0.04
0.035
0.04
0.045
0.04
0.04
0.055
0.05
0.045
0.04
0.03
0.04
0.04
0.035
0.025
-0.005
-0.02
-0.02
-0.02
-0.025
-0.055
-0.075
-0.085
-0.095
-0.1
-0.105
-0.145
-0.165
-0.16
-0.16
-0.17
-0.185
-0.2
-0.22
-0.215
-0.215
-0.225
-0.22
-0.23
-0.235
-0.22
-0.22
-0.21
-0.21
-0.22
-0.225
-0.225
-0.195
-0.21
-0.22
-0.245
-0.255
-0.25
-0.245
-0.23
-0.245
-0.25
-0.255
-0.26
-0.25
-0.22
-0.225
-0.235
-0.24
-0.24
-0.235
-0.225
-0.23
-0.25
-0.25
-0.255
-0.235
-0.22
-0.23
-0.23
-0.24
-0.23
-0.23
-0.215
-0.235
-0.24
-0.255
-0.27
-0.245
-0.25
-0.245
-0.24
-0.25
-0.225
-0.21
-0.165
-0.15
-0.16
-0.15
-0.16
-0.17
-0.145
-0.135
-0.15
-0.165
-0.16
-0.155
-0.14
-0.155
-0.16
-0.175
-0.18
-0.175
-0.165
-0.165
-0.185
-0.205
-0.225
-0.23
-0.225
-0.225
-0.23
-0.235
-0.22
-0.2
-0.205
-0.21
-0.22
-0.245
-0.255
-0.275
-0.285
-0.29
-0.295
-0.3
-0.32
-0.305
-0.295
-0.295
-0.29
-0.295
-0.295
-0.295
-0.28
-0.29
-0.3
-0.305
-0.305
-0.285
-0.27
-0.275
-0.275
-0.3
-0.32
-0.34
-0.36
-0.375
-0.365
-0.33
-0.225
-0.095
0.07
0.26
0.475
0.715
0.935
1.075
1.05
0.82
0.465
0.07
-0.405
-0.79
-0.95
-0.905
-0.81
-0.705
-0.6
-0.49
-0.42
-0.385
-0.355
-0.345
-0.32
-0.325
-0.305
-0.31
-0.32
-0.32
-0.315
-0.3
-0.295
-0.29
-0.305
-0.305
-0.3
-0.29
-0.275
-0.275
-0.28
-0.29
-0.29
-0.27
-0.245
-0.25
-0.26
-0.255
-0.265
-0.26
-0.24
-0.23
-0.24
-0.245
-0.235
-0.21
-0.18
-0.165
-0.18
-0.2
-0.19
-0.18
-0.165
-0.15
-0.15
-0.15
-0.135
-0.1
-0.08
-0.06
-0.055
-0.07
-0.06
-0.04
-0.02
0
-0.005
0.01
0.01
0.04
0.05
0.06
0.04
0.025
0.025
0.03
0.04
0.035
0.035
0.02
0.02
0.04
0.05
0.045
0.03
0.015
0.01
0.01
0.035
0.005
-0.025
-0.035
-0.045
-0.045
-0.03
-0.045
-0.07
-0.11
-0.135
-0.145
-0.145
-0.145
-0.155
-0.17
-0.18
-0.185
-0.19
-0.2
-0.215
-0.225
-0.235
-0.235
-0.23
-0.22
-0.245
-0.24
-0.235
-0.235
-0.235
-0.225
-0.25
-0.255
-0.245
-0.23
-0.215
-0.225
-0.24
-0.26
-0.26
-0.235
-0.225
-0.225
-0.24
-0.245
-0.23
-0.23
-0.215
-0.23
-0.225
-0.235
-0.24
-0.23
-0.225
-0.22
-0.245
-0.25
-0.25
-0.205
-0.2
-0.21
-0.225
-0.24
-0.24
-0.23
-0.225
-0.22
-0.23
-0.23
-0.235
-0.18
-0.16
-0.145
-0.155
-0.165
-0.17
-0.165
-0.135
-0.135
-0.16
-0.17
-0.19
-0.185
-0.17
-0.175
-0.155
-0.155
-0.165
-0.165
-0.17
-0.155
-0.165
-0.18
-0.2
-0.2
-0.195
-0.19
-0.205
-0.21
-0.23
-0.225
-0.205
-0.195
-0.23
-0.23
-0.235
-0.24
-0.26
-0.29
-0.32
-0.34
-0.32
-0.31
-0.305
-0.295
-0.295
-0.295
-0.28
-0.285
-0.28
-0.29
-0.31
-0.31
-0.31
-0.29
-0.285
-0.285
-0.305
-0.315
-0.32
-0.325
-0.305
-0.32
-0.36
-0.385
-0.365
-0.31
-0.215
-0.1
0.055
0.24
0.475
0.71
0.94
1.095
1.05
0.875
0.61
0.285
-0.125
-0.565
-0.85
-0.905
-0.835
-0.75
-0.65
-0.54
-0.465
-0.395
-0.375
-0.36
-0.34
-0.315
-0.32
-0.325
-0.31
-0.3
-0.29
-0.27
-0.285
-0.305
-0.305
-0.29
-0.295
-0.275
-0.285
-0.29
-0.3
-0.29
-0.28
-0.26
-0.26
-0.275
-0.265
-0.245
-0.23
-0.205
-0.21
-0.21
-0.215
-0.205
-0.2
-0.185
-0.195
-0.19
-0.185
-0.16
-0.145
-0.14
-0.12
-0.12
-0.115
-0.1
-0.075
-0.075
-0.065
-0.065
-0.045
-0.04
-0.025
-0.025
-0.015
-0.015
-0.005
0.005
0.035
0.045
0.03
0.04
0.045
0.035
0.055
0.07
0.06
0.065
0.07
0.06
0.085
0.09
0.065
0.045
0.045
0.045
0.035
0.025
0.01
-0.015
-0.025
-0.03
-0.03
-0.05
-0.07
-0.095
-0.105
-0.11
-0.12
-0.14
-0.175
-0.195
-0.21
-0.195
-0.19
-0.195
-0.2
-0.205
-0.215
-0.2
-0.205
-0.205
-0.225
-0.235
-0.23
-0.225
-0.215
-0.215
-0.245
-0.24
-0.235
-0.225
-0.21
-0.23
-0.255
-0.25
-0.245
-0.23
-0.22
-0.225
-0.24
-0.26
-0.235
-0.225
-0.22
-0.23
-0.22
-0.22
-0.215
-0.225
-0.225
-0.24
-0.24
-0.225
-0.225
-0.21
-0.19
-0.2
-0.21
-0.205
-0.205
-0.195
-0.195
-0.195
-0.2
-0.215
-0.2
-0.165
-0.15
-0.155
-0.165
-0.17
-0.17
-0.15
-0.13
-0.125
-0.145
-0.16
-0.155
-0.155
-0.135
-0.135
-0.155
-0.16
-0.17
-0.16
-0.17
-0.18
-0.2
-0.21
-0.225
-0.2
-0.2
-0.2
-0.215
-0.22
-0.235
-0.21
-0.205
-0.215
-0.245
-0.285
-0.29
-0.28
-0.28
-0.285
-0.285
-0.3
-0.305
-0.3
-0.295
-0.275
-0.285
-0.3
-0.29
-0.28
-0.27
-0.27
-0.28
-0.285
-0.285
-0.295
-0.3
-0.315
-0.355
-0.38
-0.35
-0.29
-0.185
-0.055
0.12
0.33
0.605
0.865
1.095
1.145
0.99
0.7
0.295
-0.17
-0.63
-0.9
-0.94
-0.86
-0.745
-0.615
-0.49
-0.41
-0.355
-0.355
-0.34
-0.315
-0.3
-0.31
-0.295
-0.305
-0.305
-0.295
-0.285
-0.28
-0.28
-0.29
-0.28
-0.27
-0.255
-0.255
-0.275
-0.265
-0.265
-0.26
-0.245
-0.245
-0.25
-0.255
-0.235
-0.22
-0.21
-0.205
-0.23
-0.225
-0.22
-0.195
-0.17
-0.16
-0.165
-0.17
-0.15
-0.135
-0.105
-0.105
-0.125
-0.105
-0.095
-0.075
-0.055
-0.045
-0.055
-0.04
-0.035
-0.025
0.005
0.01
0.015
0.02
0.045
0.045
0.065
0.06
0.045
0.055
0.05
0.075
0.085
0.095
0.075
0.075
0.065
0.09
0.1
0.105
0.075
0.055
0.055
0.07
0.07
0.06
0.035
0.015
-0.005
0.005
0.01
0
-0.01
-0.035
-0.06
-0.065
-0.06
-0.075
-0.09
-0.11
-0.12
-0.12
-0.115
-0.125
-0.135
-0.145
-0.145
-0.145
-0.155
-0.16
-0.175
-0.18
-0.185
-0.165
-0.155
-0.15
-0.155
-0.16
-0.15
-0.155
-0.175
-0.175
-0.18
-0.2
-0.19
-0.17
-0.16
-0.16
-0.175
-0.2
-0.2
-0.18
-0.18
-0.175
-0.175
-0.19
-0.185
-0.185
-0.175
-0.185
-0.195
-0.205
-0.2
-0.195
-0.175
-0.165
-0.165
-0.17
-0.17
-0.155
-0.155
-0.15
-0.16
-0.195
-0.205
-0.18
-0.185
-0.18
-0.18
-0.175
-0.18
-0.15
-0.125
-0.11
-0.135
-0.145
-0.145
-0.12
-0.09
-0.09
-0.11
-0.13
-0.14
-0.14
-0.13
-0.125
-0.135
-0.135
-0.14
-0.13
-0.125
-0.145
-0.16
-0.19
-0.205
-0.2
-0.185
-0.185
-0.205
-0.2
-0.19
-0.175
-0.165
-0.185
-0.195
-0.22
-0.235
-0.25
-0.24
-0.25
-0.255
-0.265
-0.28
-0.28
-0.25
-0.245
-0.25
-0.26
-0.265
-0.26
-0.26
-0.255
-0.275
-0.275
-0.265
-0.245
-0.235
-0.25
-0.285
-0.32
-0.335
-0.325
-0.28
-0.215
-0.105
0.035
0.225
0.485
0.74
0.98
1.145
1.165
0.98
0.665
0.265
-0.24
-0.69
-0.92
-0.91
-0.78
-0.64
-0.535
-0.455
-0.42
-0.38
-0.35
-0.295
-0.31
-0.335
-0.35
-0.345
-0.315
-0.31
-0.305
-0.32
-0.325
-0.32
-0.31
-0.3
-0.305
-0.305
-0.295
-0.285
-0.265
-0.25
-0.275
-0.285
-0.295
-0.285
-0.265
-0.25
-0.255
-0.255
-0.265
-0.255
-0.24
-0.235
-0.235
-0.225
-0.225
-0.215
-0.195
-0.18
-0.185
-0.17
-0.17
-0.165
-0.135
-0.11
-0.095
-0.095
-0.09
-0.09
-0.065
-0.035
-0.035
-0.03
-0.03
-0.01
0
0.015
0.02
0.03
0.025
0.03
0.015
0.04
0.045
0.045
0.045
0.035
0.035
0.06
0.05
0.04
0.035
0.03
0.02
0.02
0.015
0.005
-0.01
-0.025
-0.03
-0.045
-0.06
-0.085
-0.105
-0.125
-0.12
-0.125
-0.165
-0.17
-0.2
-0.21
-0.2
-0.19
-0.18
-0.2
-0.215
-0.215
-0.21
-0.195
-0.195
-0.21
-0.225
-0.21
-0.21
-0.21
-0.22
-0.23
-0.24
-0.23
-0.225
-0.22
-0.22
-0.225
-0.22
-0.24
-0.24
-0.23
-0.235
-0.235
-0.24
-0.235
-0.22
-0.205
-0.215
-0.245
-0.255
-0.265
-0.255
-0.235
-0.22
-0.22
-0.23
-0.24
-0.23
-0.22
-0.21
-0.225
-0.235
-0.24
-0.245
-0.245
-0.235
-0.24
-0.265
-0.255
-0.25
-0.235
-0.23
-0.215
-0.225
-0.23
-0.235
-0.25
-0.245
-0.215
-0.22
-0.2
-0.18
-0.15
-0.155
-0.16
-0.175
-0.17
-0.165
-0.155
-0.15
-0.175
-0.18
-0.185
-0.175
-0.195
-0.185
-0.205
-0.21
-0.2
-0.19
-0.2
-0.205
-0.22
-0.24
-0.235
-0.22
-0.21
-0.215
-0.225
-0.245
-0.25
-0.26
-0.27
-0.27
-0.295
-0.295
-0.3
-0.3
-0.295
-0.305
-0.33
-0.34
-0.335
-0.31
-0.31
-0.325
-0.335
-0.345
-0.33
-0.315
-0.295
-0.29
-0.3
-0.32
-0.34
-0.31
-0.31
-0.33
-0.375
-0.39
-0.375
-0.34
-0.275
-0.225
-0.11
0
0.18
0.41
0.645
0.875
1.02
0.99
0.825
0.56
0.21
-0.21
-0.665
-0.96
-0.985
-0.895
-0.775
-0.68
-0.585
-0.49
-0.44
-0.39
-0.36
-0.37
-0.36
-0.365
-0.355
-0.37
-0.385
-0.395
-0.385
-0.38
-0.385
-0.36
-0.345
-0.34
-0.35
-0.355
-0.355
-0.335
-0.335
-0.33
-0.315
-0.305
-0.295
-0.265
-0.26
-0.28
-0.295
-0.29
-0.28
-0.27
-0.245
-0.245
-0.25
-0.255
-0.23
-0.215
-0.205
-0.2
-0.21
-0.21
-0.19
-0.155
-0.125
-0.13
-0.13
-0.12
-0.105
-0.085
-0.08
-0.065
-0.05
-0.05
-0.035
-0.03
-0.02
-0.02
-0.035
-0.02
-0.02
0.005
-0.01
0.005
-0.035
-0.045
-0.03
-0.015
0.01
-0.005
-0.015
-0.03
-0.02
-0.005
-0.015
-0.045
-0.07
-0.08
-0.095
-0.1
-0.105
-0.125
-0.15
-0.15
-0.165
-0.185
-0.195
-0.215
-0.22
-0.245
-0.25
-0.245
-0.25
-0.245
-0.275
-0.285
-0.275
-0.285
-0.29
-0.3
-0.315
-0.33
-0.315
-0.31
-0.3
-0.29
-0.3
-0.315
-0.315
-0.295
-0.28
-0.285
-0.29
-0.295
-0.3
-0.285
-0.27
-0.27
-0.28
-0.3
-0.295
-0.29
-0.3
-0.29
-0.29
-0.275
-0.285
-0.29
-0.285
-0.295
-0.3
-0.305
-0.305
-0.29
-0.28
-0.275
-0.285
-0.31
-0.3
-0.295
-0.27
-0.27
-0.29
-0.32
-0.305
-0.305
-0.28
-0.29
-0.29
-0.285
-0.275
-0.25
-0.235
-0.23
-0.23
-0.24
-0.25
-0.235
-0.22
-0.215
-0.23
-0.245
-0.255
-0.255
-0.24
-0.23
-0.245
-0.25
-0.25
-0.245
-0.255
-0.26
-0.3
-0.33
-0.315
-0.295
-0.275
-0.275
-0.29
-0.29
-0.29
-0.28
-0.29
-0.315
-0.345
-0.355
-0.375
-0.365
-0.36
-0.365
-0.38
-0.395
-0.395
-0.38
-0.375
-0.375
-0.38
-0.39
-0.39
-0.38
-0.38
-0.37
-0.38
-0.38
-0.38
-0.375
-0.38
-0.43
-0.465
-0.455
-0.41
-0.315
-0.17
0
0.21
0.45
0.725
0.95
1.045
0.935
0.675
0.31
-0.135
-0.63
-0.96
-1.055
-1
-0.915
-0.79
-0.665
-0.55
-0.49
-0.465
-0.455
-0.455
-0.43
-0.405
-0.405
-0.415
-0.41
-0.415
-0.415
-0.405
-0.41
-0.405
-0.405
-0.395
-0.38
-0.365
-0.36
-0.38
-0.38
-0.355
-0.35
-0.335
-0.325
-0.325
-0.335
-0.325
-0.31
-0.3
-0.29
-0.29
-0.305
-0.28
-0.26
-0.24
-0.245
-0.245
-0.245
-0.22
-0.195
-0.19
-0.185
-0.185
-0.19
-0.17
-0.155
-0.13
-0.12
-0.125
-0.115
-0.1
-0.075
-0.055
-0.05
-0.04
-0.04
-0.04
-0.035
-0.02
-0.025
-0.03
-0.025
-0.01
0.01
0.015
0.005
-0.015
-0.02
-0.015
-0.005
0.01
0
-0.02
-0.06
-0.06
-0.06
-0.065
-0.095
-0.12
-0.145
-0.16
-0.165
-0.165
-0.17
-0.18
-0.2
-0.22
-0.22
-0.225
-0.245
-0.28
-0.29
-0.265
-0.275
-0.27
-0.245
-0.265
-0.27
-0.275
-0.265
-0.26
-0.26
-0.275
-0.285
-0.275
-0.27
-0.27
-0.28
-0.305
-0.295
-0.28
-0.265
-0.26
-0.285
-0.29
-0.295
-0.3
-0.275
-0.26
-0.25
-0.27
-0.265
-0.265
-0.255
-0.255
-0.265
-0.27
-0.285
-0.27
-0.26
-0.24
-0.25
-0.25
-0.26
-0.255
-0.24
-0.23
-0.245
-0.255
-0.275
-0.29
-0.255
-0.245
-0.24
-0.26
-0.265
-0.265
-0.255
-0.23
-0.23
-0.245
-0.265
-0.24
-0.215
-0.195
-0.19
-0.19
-0.205
-0.215
-0.185
-0.18
-0.18
-0.19
-0.195
-0.195
-0.18
-0.175
-0.18
-0.2
-0.2
-0.215
-0.195
-0.18
-0.2
-0.22
-0.24
-0.235
-0.235
-0.225
-0.235
-0.24
-0.235
-0.23
-0.215
-0.21
-0.24
-0.26
-0.28
-0.29
-0.295
-0.305
-0.31
-0.305
-0.32
-0.315
-0.3
-0.3
-0.31
-0.32
-0.31
-0.315
-0.32
-0.31
-0.295
-0.3
-0.305
-0.32
-0.305
-0.305
-0.33
-0.365
-0.4
-0.385
-0.335
-0.25
-0.135
0.01
0.19
0.415
0.685
0.94
1.145
1.18
0.995
0.635
0.185
-0.285
-0.735
-0.96
-0.96
-0.83
-0.675
-0.545
-0.46
-0.4
-0.38
-0.365
-0.34
-0.325
-0.32
-0.33
-0.345
-0.345
-0.34
-0.32
-0.32
-0.32
-0.34
-0.335
-0.31
-0.29
-0.3
-0.305
-0.31
-0.315
-0.315
-0.29
-0.285
-0.3
-0.305
-0.29
-0.28
-0.26
-0.23
-0.225
-0.24
-0.24
-0.225
-0.21
-0.2
-0.195
-0.17
-0.175
-0.125
-0.11
-0.095
-0.105
-0.085
-0.07
-0.045
-0.015
-0.02
-0.015
-0.01
-0.005
0.01
0.035
0.04
0.035
0.015
0.005
0.015
0.025
0.025
0.015
0.01
0.01
0.02
0.025
0.025
0.025
-0.005
-0.035
-0.025
-0.025
-0.055
-0.085
-0.1
-0.14
-0.155
-0.145
-0.16
-0.19
-0.23
-0.21
-0.2
-0.195
-0.21
-0.235
-0.245
-0.245
-0.225
-0.19
-0.195
-0.22
-0.225
-0.23
-0.23
-0.21
-0.22
-0.245
-0.24
-0.255
-0.24
-0.235
-0.235
-0.25
-0.255
-0.26
-0.265
-0.25
-0.26
-0.27
-0.29
-0.31
-0.285
-0.265
-0.26
-0.275
-0.29
-0.29
-0.27
-0.245
-0.24
-0.24
-0.255
-0.27
-0.265
-0.26
-0.25
-0.255
-0.26
-0.275
-0.26
-0.25
-0.255
-0.275
-0.29
-0.28
-0.27
-0.25
-0.25
-0.25
-0.26
-0.275
-0.27
-0.245
-0.24
-0.245
-0.255
-0.235
-0.215
-0.2
-0.2
-0.21
-0.205
-0.205
-0.185
-0.16
-0.17
-0.195
-0.22
-0.23
-0.23
-0.22
-0.225
-0.245
-0.25
-0.245
-0.245
-0.255
-0.275
-0.305
-0.305
-0.305
-0.285
-0.27
-0.245
-0.245
-0.255
-0.265
-0.285
-0.285
-0.31
-0.335
-0.355
-0.365
-0.34
-0.33
-0.32
-0.35
-0.37
-0.38
-0.355
-0.33
-0.335
-0.345
-0.355
-0.355
-0.34
-0.33
-0.34
-0.36
-0.365
-0.37
-0.37
-0.37
-0.41
-0.44
-0.42
-0.365
-0.255
-0.115
0.065
0.295
0.55
0.805
1
1.025
0.835
0.515
0.105
-0.38
-0.795
-0.98
-0.97
-0.855
-0.765
-0.665
-0.54
-0.455
-0.43
-0.43
-0.41
-0.42
-0.39
-0.385
-0.375
-0.36
-0.37
-0.38
-0.37
-0.36
-0.36
-0.36
-0.38
-0.39
-0.37
-0.355
-0.345
-0.34
-0.345
-0.35
-0.33
-0.315
-0.315
-0.315
-0.33
-0.34
-0.315
-0.295
-0.285
-0.285
-0.275
-0.265
-0.235
-0.23
-0.245
-0.25
-0.245
-0.23
-0.21
-0.19
-0.14
-0.135
-0.14
-0.15
-0.14
-0.125
-0.145
-0.13
-0.125
-0.1
-0.065
-0.03
-0.015
-0.01
-0.02
-0.045
-0.04
-0.04
-0.05
-0.04
-0.035
-0.035
-0.015
0.01
0.005
-0.01
-0.01
-0.01
-0.005
-0.02
-0.04
-0.04
-0.06
-0.06
-0.065
-0.085
-0.085
-0.095
-0.115
-0.12
-0.115
-0.115
-0.155
-0.195
-0.245
-0.26
-0.24
-0.235
-0.26
-0.26
-0.29
-0.31
-0.295
-0.27
-0.27
-0.28
-0.29
-0.31
-0.295
-0.285
-0.3
-0.315
-0.315
-0.305
-0.27
-0.25
-0.265
-0.29
-0.305
-0.31
-0.305
-0.3
-0.305
-0.31
-0.325
-0.34
-0.31
-0.29
-0.31
-0.31
-0.31
-0.295
-0.29
-0.29
-0.29
-0.285
-0.29
-0.3
-0.3
-0.275
-0.26
-0.275
-0.28
-0.295
-0.285
-0.275
-0.295
-0.315
-0.29
-0.29
-0.275
-0.27
-0.28
-0.28
-0.305
-0.315
-0.315
-0.29
-0.275
-0.265
-0.275
-0.285
-0.27
-0.255
-0.255
-0.255
-0.25
-0.23
-0.215
-0.22
-0.23
-0.235
-0.23
-0.215
-0.22
-0.21
-0.225
-0.23
-0.245
-0.23
-0.225
-0.215
-0.215
-0.23
-0.24
-0.245
-0.24
-0.235
-0.255
-0.25
-0.285
-0.275
-0.29
-0.275
-0.27
-0.28
-0.265
-0.28
-0.265
-0.26
-0.285
-0.28
-0.31
-0.325
-0.335
-0.33
-0.34
-0.33
-0.35
-0.365
-0.355
-0.35
-0.34
-0.36
-0.375
-0.36
-0.35
-0.34
-0.355
-0.345
-0.345
-0.34
-0.335
-0.33
-0.335
-0.355
-0.36
-0.365
-0.395
-0.4
-0.385
-0.33
-0.245
-0.115
0.055
0.28
0.52
0.76
0.945
1.02
0.94
0.71
0.375
-0.03
-0.47
-0.825
-0.96
-0.915
-0.835
-0.77
-0.7
-0.605
-0.505
-0.43
-0.4
-0.39
-0.39
-0.375
-0.36
-0.35
-0.34
-0.345
-0.35
-0.36
-0.34
-0.315
-0.31
-0.34
-0.355
-0.36
-0.34
-0.31
-0.305
-0.31
-0.31
-0.325
-0.3
-0.29
-0.29
-0.285
-0.295
-0.29
-0.265
-0.25
-0.255
-0.26
-0.26
-0.265
-0.235
-0.21
-0.2
-0.21
-0.22
-0.225
-0.19
-0.16
-0.15
-0.15
-0.155
-0.15
-0.125
-0.115
-0.11
-0.105
-0.095
-0.095
-0.07
-0.055
-0.035
-0.035
-0.035
-0.025
-0.01
0.02
0.02
0.015
0.005
0
0.015
0.035
0.025
0.015
0.02
0.02
0.04
0.05
0.04
0.03
0.015
0.015
0.03
0.015
0.015
0.005
0
-0.03
-0.025
-0.05
-0.045
-0.09
-0.105
-0.12
-0.105
-0.105
-0.12
-0.15
-0.175
-0.16
-0.155
-0.15
-0.155
-0.185
-0.21
-0.215
-0.2
-0.19
-0.19
-0.21
-0.23
-0.23
-0.225
-0.205
-0.185
-0.21
-0.22
-0.235
-0.225
-0.23
-0.23
-0.24
-0.245
-0.23
-0.21
-0.215
-0.205
-0.21
-0.235
-0.24
-0.225
-0.21
-0.215
-0.215
-0.215
-0.215
-0.21
-0.21
-0.2
-0.215
-0.225
-0.225
-0.22
-0.205
-0.205
-0.22
-0.21
-0.21
-0.21
-0.2
-0.21
-0.2
-0.215
-0.205
-0.2
-0.195
-0.215
-0.235
-0.22
-0.22
-0.205
-0.195
-0.205
-0.2
-0.24
-0.235
-0.21
-0.2
-0.205
-0.195
-0.205
-0.19
-0.175
-0.145
-0.14
-0.16
-0.155
-0.165
-0.145
-0.125
-0.115
-0.12
-0.13
-0.175
-0.145
-0.13
-0.12
-0.14
-0.145
-0.155
-0.155
-0.145
-0.155
-0.16
-0.175
-0.2
-0.19
-0.185
-0.19
-0.2
-0.205
-0.21
-0.19
-0.175
-0.16
-0.185
-0.19
-0.205
-0.205
-0.225
-0.23
-0.255
-0.28
-0.285
-0.275
-0.245
-0.255
-0.26
-0.275
-0.27
-0.265
-0.265
-0.25
-0.265
-0.265
-0.265
-0.265
-0.26
-0.26
-0.27
-0.25
-0.26
-0.245
-0.245
-0.275
-0.295
-0.325
-0.31
-0.265
-0.195
-0.08
0.03
0.205
0.415
0.66
0.905
1.08
1.23
1.23
1.075
0.79
0.44
0.03
-0.43
-0.8
-0.935
-0.87
-0.745
-0.625
-0.54
-0.48
-0.42
-0.35
-0.32
-0.3
-0.285
-0.3
-0.32
-0.29
-0.275
-0.27
-0.29
-0.3
-0.305
-0.3
-0.29
-0.29
-0.295
-0.29
-0.3
-0.275
-0.265
-0.255
-0.265
-0.265
-0.265
-0.255
-0.235
-0.24
-0.245
-0.245
-0.27
-0.245
-0.235
-0.225
-0.225
-0.22
-0.215
-0.2
-0.185
-0.185
-0.185
-0.17
-0.18
-0.17
-0.155
-0.14
-0.145
-0.15
-0.14
-0.115
-0.085
-0.075
-0.075
-0.085
-0.065
-0.035
-0.02
-0.01
-0.015
-0.03
-0.01
-0.005
0.025
0.03
0.03
0.03
0.025
0.035
0.045
0.06
0.055
0.055
0.05
0.06
0.065
0.05
0.055
0.05
0.045
0.05
0.05
0.06
0.03
0
-0.005
-0.025
-0.005
-0.02
-0.055
-0.08
-0.095
-0.105
-0.115
-0.13
-0.145
-0.17
-0.18
-0.165
-0.16
-0.165
-0.185
-0.175
-0.19
-0.18
-0.175
-0.175
-0.19
-0.195
-0.2
-0.175
-0.17
-0.165
-0.175
-0.19
-0.195
-0.18
-0.165
-0.17
-0.185
-0.2
-0.2
-0.21
-0.2
-0.185
-0.195
-0.2
-0.2
-0.215
-0.195
-0.2
-0.225
-0.22
-0.22
-0.215
-0.2
-0.19
-0.205
-0.23
-0.235
-0.215
-0.205
-0.2
-0.18
-0.195
-0.195
-0.19
-0.185
-0.19
-0.2
-0.22
-0.22
-0.195
-0.18
-0.175
-0.2
-0.19
-0.195
-0.185
-0.19
-0.18
-0.18
-0.185
-0.18
-0.17
-0.16
-0.16
-0.165
-0.16
-0.13
-0.11
-0.1
-0.11
-0.12
-0.125
-0.125
-0.115
-0.1
-0.1
-0.125
-0.13
-0.14
-0.135
-0.125
-0.13
-0.13
-0.155
-0.17
-0.165
-0.15
-0.16
-0.185
-0.205
-0.205
-0.19
-0.17
-0.165
-0.18
-0.175
-0.17
-0.165
-0.17
-0.175
-0.2
-0.23
-0.255
-0.26
-0.255
-0.255
-0.245
-0.26
-0.28
-0.255
-0.245
-0.25
-0.26
-0.29
-0.28
-0.265
-0.255
-0.27
-0.265
-0.27
-0.265
-0.24
-0.235
-0.245
-0.28
-0.32
-0.33
-0.325
-0.29
-0.23
-0.125
0
0.155
0.385
0.645
0.88
1.095
1.17
1.02
0.695
0.31
-0.16
-0.595
-0.875
-0.905
-0.785
-0.645
-0.545
-0.455
-0.415
-0.345
-0.315
-0.285
-0.265
-0.27
-0.27
-0.285
-0.275
-0.265
-0.255
-0.26
-0.27
-0.275
-0.285
-0.285
-0.265
-0.285
-0.285
-0.28
-0.265
-0.25
-0.25
-0.25
-0.25
-0.245
-0.235
-0.235
-0.23
-0.24
-0.235
-0.22
-0.205
-0.195
-0.205
-0.22
-0.215
-0.225
-0.19
-0.185
-0.18
-0.17
-0.17
-0.165
-0.16
-0.14
-0.13
-0.115
-0.105
-0.095
-0.09
-0.065
-0.035
-0.04
-0.045
-0.04
-0.02
-0.01
-0.01
-0.01
-0.01
0.005
0.025
0.05
0.05
0.05
0.045
0.045
0.045
0.065
0.065
0.07
0.065
0.065
0.065
0.065
0.06
0.04
0.01
0.01
0.005
0.01
-0.01
-0.025
-0.055
-0.075
-0.075
-0.1
-0.095
-0.12
-0.125
-0.14
-0.145
-0.14
-0.135
-0.165
-0.19
-0.185
-0.195
-0.195
-0.19
-0.215
-0.225
-0.2
-0.195
-0.175
-0.19
-0.195
-0.215
-0.22
-0.21
-0.22
-0.22
-0.23
-0.22
-0.22
-0.22
-0.2
-0.19
-0.21
-0.22
-0.22
-0.215
-0.2
-0.195
-0.205
-0.22
-0.215
-0.21
-0.215
-0.2
-0.205
-0.2
-0.205
-0.205
-0.2
-0.22
-0.215
-0.22
-0.225
-0.225
-0.215
-0.22
-0.245
-0.225
-0.22
-0.21
-0.21
-0.22
-0.235
-0.245
-0.24
-0.24
-0.245
-0.23
-0.215
-0.215
-0.21
-0.21
-0.195
-0.2
-0.19
-0.18
-0.19
-0.185
-0.175
-0.17
-0.18
-0.18
-0.16
-0.155
-0.155
-0.145
-0.15
-0.175
-0.18
-0.155
-0.15
-0.16
-0.18
-0.19
-0.205
-0.19
-0.185
-0.2
-0.215
-0.23
-0.255
-0.225
-0.2
-0.185
-0.185
-0.215
-0.23
-0.23
-0.22
-0.24
-0.27
-0.305
-0.3
-0.285
-0.28
-0.285
-0.295
-0.28
-0.285
-0.275
-0.27
-0.275
-0.275
-0.29
-0.295
-0.28
-0.27
-0.26
-0.27
-0.28
-0.295
-0.305
-0.33
-0.345
-0.345
-0.305
-0.235
-0.1
0.055
0.26
0.49
0.735
0.965
1.105
1.02
0.755
0.355
-0.1
-0.585
-0.905
-0.945
-0.815
-0.68
-0.57
-0.48
-0.405
-0.36
-0.325
-0.32
-0.33
-0.315
-0.32
-0.315
-0.285
-0.3
-0.315
-0.325
-0.305
-0.29
-0.265
-0.265
-0.285
-0.285
-0.26
-0.245
-0.25
-0.25
-0.26
-0.26
-0.26
-0.245
-0.24
-0.25
-0.25
-0.25
-0.24
-0.215
-0.2
-0.185
-0.185
-0.205
-0.205
-0.185
-0.17
-0.155
-0.15
-0.145
-0.13
-0.1
-0.08
-0.08
-0.09
-0.095
-0.075
-0.055
-0.045
-0.025
-0.03
-0.025
-0.025
-0.005
0.01
0.03
0.02
0.025
0.025
0.035
0.05
0.045
0.04
0.05
0.06
0.065
0.055
0.06
0.055
0.05
0.035
0.035
0.035
0.02
-0.005
-0.035
-0.025
-0.025
-0.04
-0.065
-0.08
-0.1
-0.105
-0.105
-0.11
-0.135
-0.165
-0.175
-0.165
-0.165
-0.17
-0.19
-0.19
-0.18
-0.17
-0.16
-0.17
-0.18
-0.19
-0.205
-0.195
-0.205
-0.21
-0.215
-0.225
-0.215
-0.2
-0.195
-0.19
-0.195
-0.2
-0.195
-0.185
-0.17
-0.19
-0.19
-0.195
-0.215
-0.19
-0.2
-0.195
-0.195
-0.2
-0.21
-0.2
-0.185
-0.18
-0.18
-0.2
-0.21
-0.19
-0.17
-0.165
-0.165
-0.18
-0.2
-0.19
-0.19
-0.185
-0.18
-0.195
-0.2
-0.2
-0.19
-0.19
-0.195
-0.195
-0.19
-0.185
-0.155
-0.165
-0.165
-0.16
-0.155
-0.145
-0.125
-0.13
-0.14
-0.135
-0.12
-0.1
-0.105
-0.105
-0.12
-0.13
-0.12
-0.12
-0.11
-0.1
-0.11
-0.13
-0.15
-0.15
-0.155
-0.16
-0.175
-0.18
-0.185
-0.19
-0.16
-0.14
-0.14
-0.14
-0.16
-0.17
-0.19
-0.235
-0.24
-0.26
-0.265
-0.24
-0.24
-0.24
-0.26
-0.295
-0.27
-0.265
-0.26
-0.245
-0.25
-0.265
-0.255
-0.27
-0.245
-0.24
-0.24
-0.255
-0.27
-0.255
-0.275
-0.295
-0.315
-0.315
-0.275
-0.18
-0.065
0.09
0.31
0.515
0.75
0.96
1.07
1.01
0.795
0.485
0.145
-0.275
-0.67
-0.87
-0.865
-0.765
-0.665
-0.535
-0.435
-0.355
-0.315
-0.295
-0.28
-0.255
-0.25
-0.245
-0.23
-0.25
-0.255
-0.25
-0.235
-0.23
-0.235
-0.235
-0.23
-0.23
-0.22
-0.22
-0.225
-0.245
-0.24
-0.215
-0.215
-0.205
-0.205
-0.21
-0.215
-0.19
-0.19
-0.18
-0.185
-0.175
-0.165
-0.145
-0.135
-0.13
-0.14
-0.15
-0.14
-0.105
-0.1
-0.09
-0.095
-0.1
-0.095
-0.07
-0.05
-0.025
-0.02
-0.03
-0.015
0
0.03
0.03
0.025
0.025
0.04
0.05
0.075
0.08
0.09
0.08
0.075
0.085
0.1
0.08
0.095
0.095
0.1
0.105
0.12
0.115
0.11
0.09
0.09
0.1
0.11
0.09
0.075
0.035
0.01
0.005
-0.01
-0.01
-0.025
-0.065
-0.08
-0.085
-0.08
-0.09
-0.105
-0.12
-0.125
-0.115
-0.13
-0.13
-0.14
-0.14
-0.15
-0.155
-0.155
-0.15
-0.155
-0.16
-0.17
-0.165
-0.16
-0.14
-0.135
-0.145
-0.15
-0.15
-0.14
-0.135
-0.14
-0.16
-0.175
-0.175
-0.17
-0.175
-0.185
-0.18
-0.17
-0.155
-0.145
-0.145
-0.165
-0.165
-0.175
-0.145
-0.155
-0.145
-0.15
-0.16
-0.16
-0.175
-0.16
-0.15
-0.175
-0.185
-0.18
-0.165
-0.15
-0.17
-0.175
-0.195
-0.2
-0.185
-0.165
-0.165
-0.185
-0.185
-0.185
-0.165
-0.16
-0.145
-0.135
-0.12
-0.13
-0.115
-0.11
-0.1
-0.105
-0.115
-0.115
-0.11
-0.115
-0.115
-0.115
-0.135
-0.14
-0.11
-0.1
-0.11
-0.135
-0.16
-0.175
-0.19
-0.165
-0.17
-0.18
-0.195
-0.195
-0.18
-0.14
-0.145
-0.17
-0.18
-0.205
-0.22
-0.22
-0.24
-0.24
-0.245
-0.25
-0.24
-0.24
-0.24
-0.235
-0.245
-0.25
-0.235
-0.25
-0.24
-0.255
-0.275
-0.28
-0.27
-0.26
-0.25
-0.265
-0.285
-0.3
-0.325
-0.305
-0.275
-0.2
-0.1
0.04
0.23
0.5
0.76
0.97
1.055
0.96
0.685
0.335
-0.07
-0.54
-0.865
-0.965
-0.865
-0.725
-0.6
-0.495
-0.41
-0.355
-0.31
-0.295
-0.285
-0.295
-0.305
-0.31
-0.305
-0.305
-0.29
-0.29
-0.285
-0.275
-0.265
-0.255
-0.25
-0.265
-0.28
-0.28
-0.26
-0.25
-0.25
-0.24
-0.255
-0.25
-0.23
-0.215
-0.205
-0.22
-0.23
-0.235
-0.23
-0.195
-0.2
-0.195
-0.2
-0.19
-0.16
-0.125
-0.125
-0.115
-0.125
-0.13
-0.11
-0.1
-0.065
-0.06
-0.055
-0.055
-0.045
-0.025
-0.015
-0.01
-0.015
-0.02
-0.01
0
0
0
0.015
0.035
0.055
0.07
0.055
0.05
0.045
0.035
0.04
0.07
0.07
0.055
0.025
0.02
0.025
0.045
0.03
0.02
0
-0.005
-0.005
-0.02
-0.055
-0.08
-0.125
-0.125
-0.12
-0.12
-0.12
-0.135
-0.15
-0.16
-0.14
-0.145
-0.145
-0.17
-0.19
-0.2
-0.205
-0.21
-0.21
-0.235
-0.25
-0.245
-0.235
-0.22
-0.215
-0.23
-0.24
-0.25
-0.23
-0.235
-0.23
-0.25
-0.25
-0.25
-0.23
-0.205
-0.2
-0.215
-0.225
-0.23
-0.225
-0.21
-0.21
-0.22
-0.235
-0.24
-0.225
-0.215
-0.215
-0.24
-0.265
-0.245
-0.25
-0.215
-0.215
-0.22
-0.235
-0.235
-0.24
-0.235
-0.24
-0.255
-0.275
-0.285
-0.28
-0.275
-0.245
-0.25
-0.255
-0.255
-0.245
-0.235
-0.2
-0.215
-0.2
-0.24
-0.22
-0.205
-0.205
-0.21
-0.21
-0.195
-0.175
-0.145
-0.155
-0.2
-0.22
-0.22
-0.205
-0.2
-0.18
-0.21
-0.22
-0.235
-0.23
-0.22
-0.23
-0.255
-0.26
-0.26
-0.245
-0.24
-0.225
-0.235
-0.255
-0.265
-0.265
-0.255
-0.27
-0.3
-0.325
-0.325
-0.315
-0.3
-0.305
-0.32
-0.34
-0.34
-0.335
-0.315
-0.31
-0.33
-0.35
-0.35
-0.34
-0.32
-0.295
-0.295
-0.33
-0.37
-0.37
-0.39
-0.405
-0.4
-0.38
-0.325
-0.2
-0.055
0.145
0.4
0.655
0.87
0.985
0.925
0.685
0.345
-0.07
-0.525
-0.86
-0.965
-0.89
-0.815
-0.74
-0.64
-0.55
-0.465
-0.43
-0.425
-0.43
-0.405
-0.38
-0.355
-0.35
-0.365
-0.37
-0.36
-0.335
-0.335
-0.325
-0.33
-0.33
-0.33
-0.315
-0.305
-0.31
-0.32
-0.34
-0.335
-0.32
-0.3
-0.29
-0.275
-0.275
-0.265
-0.265
-0.255
-0.245
-0.24
-0.245
-0.23
-0.22
-0.195
-0.18
-0.16
-0.17
-0.155
-0.165
-0.13
-0.12
-0.125
-0.105
-0.1
-0.08
-0.06
-0.05
-0.055
-0.075
-0.075
-0.04
-0.015
-0.005
-0.005
-0.02
-0.02
-0.015
-0.005
-0.01
-0.02
-0.03
-0.035
-0.035
-0.035
-0.045
-0.03
-0.045
-0.06
-0.055
-0.055
-0.055
-0.07
-0.1
-0.13
-0.14
-0.15
-0.175
-0.185
-0.21
-0.22
-0.225
-0.215
-0.22
-0.245
-0.255
-0.27
-0.26
-0.26
-0.25
-0.25
-0.29
-0.295
-0.285
-0.26
-0.26
-0.265
-0.27
-0.275
-0.255
-0.245
-0.25
-0.265
-0.26
-0.265
-0.26
-0.245
-0.245
-0.25
-0.25
-0.24
-0.24
-0.225
-0.23
-0.24
-0.25
-0.245
-0.25
-0.225
-0.225
-0.24
-0.26
-0.25
-0.24
-0.22
-0.215
-0.225
-0.245
-0.24
-0.235
-0.225
-0.24
-0.255
-0.245
-0.255
-0.245
-0.24
-0.24
-0.245
-0.255
-0.255
-0.24
-0.245
-0.215
-0.21
-0.225
-0.235
-0.215
-0.215
-0.19
-0.205
-0.225
-0.235
-0.21
-0.19
-0.195
-0.205
-0.2
-0.215
-0.225
-0.2
-0.21
-0.22
-0.25
-0.275
-0.265
-0.265
-0.255
-0.27
-0.265
-0.26
-0.235
-0.22
-0.25
-0.27
-0.295
-0.335
-0.325
-0.325
-0.33
-0.33
-0.34
-0.35
-0.33
-0.32
-0.305
-0.315
-0.335
-0.35
-0.345
-0.33
-0.31
-0.325
-0.335
-0.33
-0.31
-0.3
-0.31
-0.315
-0.37
-0.395
-0.395
-0.38
-0.34
-0.27
-0.165
0.005
0.225
0.48
0.74
0.93
1.045
0.99
0.795
0.515
0.16
-0.265
-0.68
-0.94
-0.98
-0.895
-0.805
-0.72
-0.63
-0.535
-0.46
-0.39
-0.36
-0.345
-0.35
-0.355
-0.34
-0.345
-0.33
-0.335
-0.345
-0.345
-0.33
-0.32
-0.315
-0.315
-0.335
-0.34
-0.33
-0.29
-0.29
-0.3
-0.3
-0.3
-0.295
-0.275
-0.27
-0.265
-0.275
-0.27
-0.26
-0.255
-0.255
-0.245
-0.24
-0.225
-0.205
-0.195
-0.185
-0.165
-0.175
-0.16
-0.14
-0.1
-0.085
-0.07
-0.075
-0.055
-0.045
-0.025
-0.01
-0.025
-0.025
-0.01
-0.005
0.01
0.005
-0.005
-0.01
0.005
0.015
0.025
0.015
0.005
0.005
0.005
0.01
0.02
0.01
-0.015
-0.02
-0.05
-0.03
-0.035
-0.05
-0.06
-0.105
-0.11
-0.125
-0.13
-0.125
-0.145
-0.17
-0.205
-0.205
-0.205
-0.19
-0.2
-0.225
-0.225
-0.235
-0.235
-0.23
-0.225
-0.225
-0.23
-0.225
-0.225
-0.225
-0.235
-0.25
-0.245
-0.235
-0.24
-0.23
-0.215
-0.225
-0.215
-0.22
-0.205
-0.2
-0.21
-0.215
-0.215
-0.21
-0.205
-0.215
-0.215
-0.23
-0.23
-0.225
-0.195
-0.195
-0.205
-0.215
-0.22
-0.22
-0.215
-0.215
-0.22
-0.23
-0.24
-0.23
-0.22
-0.22
-0.245
-0.23
-0.225
-0.205
-0.19
-0.19
-0.205
-0.22
-0.215
-0.18
-0.17
-0.16
-0.17
-0.185
-0.185
-0.175
-0.15
-0.135
-0.125
-0.145
-0.15
-0.15
-0.155
-0.15
-0.155
-0.175
-0.185
-0.185
-0.17
-0.185
-0.195
-0.22
-0.225
-0.235
-0.215
-0.215
-0.235
-0.23
-0.22
-0.2
-0.19
-0.2
-0.22
-0.24
-0.26
-0.27
-0.28
-0.28
-0.29
-0.295
-0.3
-0.295
-0.28
-0.285
-0.29
-0.295
-0.29
-0.28
-0.265
-0.28
-0.295
-0.31
-0.305
-0.285
-0.265
-0.265
-0.29
-0.315
-0.33
-0.355
-0.345
-0.295
-0.225
-0.09
0.06
0.245
0.485
0.71
0.925
1.065
1.09
0.945
0.685
0.335
-0.085
-0.555
-0.875
-0.955
-0.875
-0.76
-0.66
-0.57
-0.485
-0.41
-0.35
-0.33
-0.325
-0.34
-0.32
-0.315
-0.31
-0.3
-0.315
-0.315
-0.315
-0.29
-0.285
-0.295
-0.295
-0.295
-0.305
-0.305
-0.29
-0.27
-0.27
-0.275
-0.285
-0.275
-0.27
-0.265
-0.265
-0.285
-0.275
-0.255
-0.235
-0.215
-0.22
-0.24
-0.24
-0.22
-0.19
-0.18
-0.17
-0.175
-0.175
-0.16
-0.14
-0.12
-0.12
-0.115
-0.125
-0.11
-0.095
-0.095
-0.08
-0.07
-0.065
-0.055
-0.04
-0.01
-0.01
-0.02
-0.02
0
0.02
0.015
0.025
0.03
0.025
0.03
0.035
0.045
0.035
0.02
0.04
0.045
0.06
0.035
0.035
0.035
0.025
0.03
0.025
0.035
0.02
-0.005
-0.025
-0.02
-0.025
-0.045
-0.07
-0.095
-0.115
-0.1
-0.105
-0.1
-0.12
-0.135
-0.16
-0.165
-0.17
-0.175
-0.18
-0.215
-0.21
-0.195
-0.175
-0.17
-0.175
-0.2
-0.21
-0.2
-0.215
-0.215
-0.21
-0.21
-0.215
-0.205
-0.2
-0.2
-0.22
-0.235
-0.23
-0.22
-0.19
-0.185
-0.195
-0.215
-0.23
-0.225
-0.22
-0.19
-0.205
-0.2
-0.21
-0.21
-0.21
-0.21
-0.21
-0.23
-0.23
-0.23
-0.22
-0.215
-0.215
-0.215
-0.225
-0.21
-0.205
-0.205
-0.225
-0.23
-0.225
-0.22
-0.21
-0.21
-0.21
-0.21
-0.22
-0.195
-0.2
-0.18
-0.18
-0.175
-0.175
-0.15
-0.135
-0.14
-0.15
-0.17
-0.15
-0.14
-0.125
-0.115
-0.125
-0.15
-0.16
-0.165
-0.15
-0.155
-0.165
-0.185
-0.19
-0.195
-0.19
-0.185
-0.2
-0.22
-0.225
-0.21
-0.205
-0.21
-0.205
-0.2
-0.2
-0.19
-0.19
-0.195
-0.21
-0.255
-0.265
-0.295
-0.275
-0.275
-0.27
-0.265
-0.27
-0.28
-0.28
-0.27
-0.255
-0.265
-0.265
-0.275
-0.26
-0.25
-0.26
-0.27
-0.28
-0.265
-0.26
-0.265
-0.27
-0.265
-0.28
-0.29
-0.31
-0.32
-0.335
-0.305
-0.25
-0.135
-0.015
0.115
0.305
0.485
0.72
0.92
1.08
1.1
0.925
0.61
0.26
-0.17
-0.585
-0.855
-0.9
-0.805
-0.695
-0.575
-0.45
-0.37
-0.315
-0.32
-0.31
-0.29
-0.265
-0.265
-0.295
-0.305
-0.315
-0.29
-0.275
-0.27
-0.26
-0.27
-0.28
-0.285
-0.265
-0.245
-0.25
-0.26
-0.265
-0.24
-0.23
-0.23
-0.22
-0.225
-0.225
-0.22
-0.21
-0.2
-0.195
-0.21
-0.195
-0.195
-0.175
-0.165
-0.17
-0.18
-0.19
-0.165
-0.16
-0.135
-0.115
-0.125
-0.11
-0.095
-0.08
-0.05
-0.055
-0.055
-0.045
-0.035
-0.02
-0.005
0
0.02
0.02
0.025
0.03
0.04
0.045
0.05
0.055
0.065
0.075
0.08
0.07
0.06
0.05
0.06
0.065
0.065
0.06
0.045
0.035
0.045
0.045
0.055
0.035
0.03
0.005
0
0.005
0.015
-0.005
-0.035
-0.05
-0.065
-0.075
-0.08
-0.085
-0.105
-0.11
-0.115
-0.115
-0.12
-0.13
-0.155
-0.165
-0.18
-0.17
-0.165
-0.16
-0.165
-0.17
-0.165
-0.18
-0.18
-0.185
-0.18
-0.175
-0.18
-0.185
-0.18
-0.185
-0.195
-0.195
-0.175
-0.165
-0.165
-0.18
-0.18
-0.175
-0.16
-0.155
-0.145
-0.15
-0.17
-0.17
-0.17
-0.18
-0.18
-0.185
-0.185
-0.2
-0.195
-0.175
-0.17
-0.18
-0.17
-0.19
-0.195
-0.185
-0.185
-0.185
-0.19
-0.205
-0.18
-0.17
-0.17
-0.175
-0.18
-0.175
-0.155
-0.125
-0.105
-0.115
-0.13
-0.12
-0.11
-0.09
-0.09
-0.1
-0.1
-0.095
-0.105
-0.1
-0.09
-0.12
-0.12
-0.115
-0.125
-0.11
-0.105
-0.115
-0.15
-0.165
-0.16
-0.15
-0.125
-0.145
-0.145
-0.165
-0.16
-0.14
-0.135
-0.14
-0.15
-0.18
-0.175
-0.17
-0.19
-0.23
-0.23
-0.255
-0.225
-0.22
-0.205
-0.21
-0.215
-0.225
-0.245
-0.215
-0.205
-0.21
-0.225
-0.22
-0.22
-0.215
-0.22
-0.215
-0.22
-0.23
-0.225
-0.25
-0.265
-0.29
-0.295
-0.29
-0.195
-0.08
0.07
0.25
0.45
0.685
0.91
1.07
1.105
0.945
0.68
0.34
-0.055
-0.455
-0.765
-0.86
-0.805
-0.685
-0.57
-0.445
-0.355
-0.31
-0.275
-0.255
-0.25
-0.24
-0.24
-0.24
-0.26
-0.255
-0.255
-0.225
-0.215
-0.225
-0.245
-0.255
-0.25
-0.24
-0.22
-0.23
-0.245
-0.24
-0.225
-0.21
-0.2
-0.215
-0.22
-0.215
-0.19
-0.17
-0.16
-0.175
-0.165
-0.185
-0.175
-0.155
-0.145
-0.12
-0.13
-0.13
-0.125
-0.115
-0.1
-0.11
-0.105
-0.105
-0.075
-0.06
-0.035
-0.04
-0.04
-0.04
-0.03
-0.02
0.02
0.02
0.02
0.01
0.03
0.055
0.08
0.08
0.06
0.065
0.07
0.075
0.09
0.105
0.1
0.095
0.105
0.12
0.14
0.115
0.11
0.115
0.12
0.125
0.115
0.115
0.075
0.065
0.065
0.06
0.04
0.03
0.005
-0.005
-0.02
-0.015
-0.02
-0.045
-0.065
-0.095
-0.085
-0.075
-0.07
-0.095
-0.105
-0.14
-0.135
-0.135
-0.115
-0.115
-0.145
-0.16
-0.15
-0.13
-0.13
-0.145
-0.155
-0.145
-0.14
-0.125
-0.13
-0.145
-0.145
-0.135
-0.145
-0.135
-0.13
-0.14
-0.15
-0.16
-0.155
-0.165
-0.15
-0.14
-0.15
-0.165
-0.155
-0.155
-0.155
-0.155
-0.16
-0.17
-0.15
-0.14
-0.135
-0.15
-0.16
-0.19
-0.185
-0.15
-0.135
-0.135
-0.145
-0.16
-0.165
-0.16
-0.14
-0.14
-0.145
-0.15
-0.135
-0.12
-0.135
-0.13
-0.135
-0.125
-0.11
-0.095
-0.095
-0.1
-0.105
-0.1
-0.095
-0.065
-0.065
-0.07
-0.085
-0.095
-0.09
-0.085
-0.075
-0.08
-0.085
-0.11
-0.13
-0.125
-0.12
-0.145
-0.155
-0.165
-0.155
-0.145
-0.155
-0.14
-0.165
-0.16
-0.165
-0.17
-0.175
-0.195
-0.22
-0.235
-0.245
-0.24
-0.23
-0.23
-0.25
-0.25
-0.225
-0.22
-0.215
-0.22
-0.22
-0.245
-0.235
-0.22
-0.23
-0.23
-0.24
-0.26
-0.265
-0.255
-0.25
-0.285
-0.305
-0.305
-0.265
-0.205
-0.095
0.03
0.175
0.36
0.56
0.78
0.94
1.005
0.93
0.73
0.44
0.115
-0.24
-0.615
-0.84
-0.85
-0.74
-0.605
-0.505
-0.43
-0.36
-0.33
-0.3
-0.27
-0.255
-0.27
-0.28
-0.285
-0.265
-0.24
-0.23
-0.24
-0.245
-0.24
-0.245
-0.245
-0.23
-0.25
-0.25
-0.25
-0.245
-0.23
-0.215
-0.215
-0.23
-0.23
-0.22
-0.21
-0.195
-0.205
-0.205
-0.205
-0.18
-0.19
-0.17
-0.155
-0.155
-0.155
-0.17
-0.14
-0.13
-0.11
-0.105
-0.115
-0.095
-0.08
-0.06
-0.06
-0.065
-0.055
-0.03
-0.02
0.005
-0.02
-0.005
0
0.01
0.035
0.04
0.05
0.035
0.045
0.045
0.07
0.055
0.075
0.065
0.055
0.06
0.075
0.08
0.06
0.055
0.045
0.045
0.05
0.06
0.055
0.035
0.015
0.01
0
0
-0.02
-0.03
-0.07
-0.075
-0.08
-0.08
-0.105
-0.12
-0.15
-0.15
-0.17
-0.17
-0.175
-0.18
-0.205
-0.195
-0.19
-0.195
-0.19
-0.2
-0.205
-0.205
-0.195
-0.215
-0.215
-0.235
-0.22
-0.225
-0.21
-0.21
-0.21
-0.22
-0.225
-0.235
-0.215
-0.205
-0.21
-0.23
-0.225
-0.225
-0.22
-0.2
-0.2
-0.205
-0.235
-0.23
-0.22
-0.205
-0.215
-0.225
-0.23
-0.23
-0.21
-0.215
-0.21
-0.21
-0.215
-0.22
-0.21
-0.21
-0.225
-0.23
-0.225
-0.235
-0.22
-0.2
-0.195
-0.19
-0.185
-0.17
-0.165
-0.145
-0.135
-0.135
-0.15
-0.15
-0.155
-0.16
-0.17
-0.185
-0.195
-0.19
-0.185
-0.175
-0.175
-0.19
-0.205
-0.23
-0.225
-0.225
-0.22
-0.23
-0.235
-0.24
-0.2
-0.18
-0.21
-0.24
-0.265
-0.27
-0.28
-0.265
-0.28
-0.305
-0.31
-0.31
-0.3
-0.3
-0.295
-0.31
-0.31
-0.315
-0.31
-0.305
-0.315
-0.33
-0.32
-0.315
-0.315
-0.32
-0.32
-0.325
-0.355
-0.35
-0.36
-0.39
-0.405
-0.395
-0.355
-0.28
-0.145
0.025
0.23
0.49
0.735
0.91
0.975
0.865
0.61
0.285
-0.09
-0.545
-0.875
-0.955
-0.905
-0.805
-0.71
-0.625
-0.525
-0.455
-0.42
-0.405
-0.385
-0.365
-0.35
-0.35
-0.345
-0.355
-0.37
-0.36
-0.34
-0.32
-0.33
-0.33
-0.34
-0.34
-0.33
-0.325
-0.33
-0.315
-0.32
-0.315
-0.295
-0.285
-0.275
-0.27
-0.305
-0.305
-0.305
-0.295
-0.29
-0.285
-0.275
-0.265
-0.265
-0.245
-0.24
-0.25
-0.25
-0.225
-0.195
-0.18
-0.155
-0.165
-0.175
-0.155
-0.135
-0.13
-0.12
-0.095
-0.085
-0.085
-0.055
-0.035
-0.05
-0.06
-0.06
-0.055
-0.04
-0.04
-0.045
-0.065
-0.075
-0.06
-0.05
-0.035
-0.025
-0.03
-0.035
-0.04
-0.06
-0.065
-0.07
-0.085
-0.08
-0.08
-0.085
-0.075
-0.095
-0.12
-0.13
-0.16
-0.19
-0.21
-0.22
-0.235
-0.255
-0.255
-0.255
-0.25
-0.255
-0.27
-0.285
-0.315
-0.325
-0.305
-0.305
-0.335
-0.34
-0.345
-0.33
-0.325
-0.325
-0.33
-0.34
-0.33
-0.325
-0.31
-0.32
-0.32
-0.34
-0.315
-0.305
-0.315
-0.335
-0.33
-0.335
-0.325
-0.3
-0.28
-0.295
-0.315
-0.325
-0.34
-0.33
-0.315
-0.315
-0.32
-0.31
-0.305
-0.305
-0.285
-0.29
-0.305
-0.32
-0.31
-0.3
-0.295
-0.295
-0.305
-0.315
-0.3
-0.31
-0.295
-0.3
-0.285
-0.29
-0.3
-0.275
-0.265
-0.245
-0.26
-0.275
-0.265
-0.25
-0.215
-0.2
-0.225
-0.24
-0.26
-0.25
-0.245
-0.235
-0.245
-0.28
-0.275
-0.275
-0.265
-0.28
-0.295
-0.325
-0.31
-0.29
-0.29
-0.305
-0.305
-0.325
-0.315
-0.3
-0.3
-0.31
-0.33
-0.365
-0.385
-0.39
-0.38
-0.37
-0.38
-0.385
-0.38
-0.365
-0.365
-0.37
-0.385
-0.39
-0.385
-0.37
-0.36
-0.355
-0.375
-0.385
-0.39
-0.375
-0.36
-0.37
-0.405
-0.41
-0.435
-0.445
-0.43
-0.4
-0.35
-0.24
-0.095
0.1
0.315
0.565
0.795
0.935
0.95
0.84
0.605
0.285
-0.115
-0.575
-0.9
-1.01
-0.95
-0.88
-0.815
-0.72
-0.6
-0.525
-0.47
-0.445
-0.445
-0.425
-0.41
-0.405
-0.385
-0.385
-0.4
-0.415
-0.4
-0.385
-0.365
-0.365
-0.38
-0.375
-0.37
-0.355
-0.35
-0.36
-0.365
-0.36
-0.36
-0.34
-0.33
-0.325
-0.325
-0.32
-0.32
-0.325
-0.305
-0.31
-0.315
-0.325
-0.295
-0.285
-0.255
-0.265
-0.255
-0.27
-0.24
-0.23
-0.215
-0.21
-0.195
-0.195
-0.175
-0.14
-0.125
-0.12
-0.115
-0.105
-0.095
-0.085
-0.07
-0.06
-0.05
-0.06
-0.055
-0.035
-0.025
-0.015
-0.035
-0.03
-0.04
-0.02
0
-0.005
-0.03
-0.045
-0.035
-0.015
-0.01
-0.03
-0.05
-0.055
-0.065
-0.055
-0.055
-0.06
-0.085
-0.125
-0.125
-0.12
-0.125
-0.14
-0.16
-0.19
-0.195
-0.21
-0.21
-0.235
-0.235
-0.235
-0.245
-0.23
-0.22
-0.22
-0.21
-0.2
-0.225
-0.255
-0.26
-0.285
-0.29
-0.3
-0.29
-0.26
-0.25
-0.27
-0.275
-0.28
-0.28
-0.275
-0.25
-0.25
-0.265
-0.25
-0.255
-0.245
-0.24
-0.245
-0.27
-0.275
-0.27
-0.24
-0.21
-0.215
-0.225
-0.23
-0.245
-0.23
-0.21
-0.225
-0.24
-0.24
-0.245
-0.23
-0.215
-0.23
-0.245
-0.255
-0.25
-0.245
-0.235
-0.23
-0.235
-0.24
-0.24
-0.22
-0.205
-0.21
-0.215
-0.205
-0.205
-0.215
-0.2
-0.195
-0.175
-0.185
-0.21
-0.21
-0.215
-0.195
-0.19
-0.195
-0.21
-0.23
-0.245
-0.23
-0.235
-0.24
-0.23
-0.22
-0.22
-0.24
-0.26
-0.255
-0.24
-0.22
-0.215
-0.22
-0.245
-0.26
-0.275
-0.275
-0.27
-0.295
-0.32
-0.33
-0.33
-0.33
-0.32
-0.315
-0.32
-0.34
-0.36
-0.345
-0.35
-0.335
-0.33
-0.34
-0.325
-0.31
-0.315
-0.33
-0.34
-0.33
-0.325
-0.335
-0.345
-0.35
-0.33
-0.265
-0.14
0.035
0.255
0.545
0.805
1.02
1.095
0.96
0.615
0.17
-0.32
-0.765
-0.98
-0.955
-0.825
-0.69
-0.58
-0.52
-0.455
-0.41
-0.375
-0.37
-0.385
-0.38
-0.365
-0.36
-0.34
-0.34
-0.355
-0.345
-0.35
-0.345
-0.34
-0.33
-0.33
-0.32
-0.315
-0.3
-0.295
-0.335
-0.33
-0.345
-0.335
-0.305
-0.3
-0.31
-0.32
-0.305
-0.3
-0.29
-0.27
-0.285
-0.27
-0.28
-0.265
-0.24
-0.21
-0.215
-0.215
-0.21
-0.195
-0.18
-0.16
-0.17
-0.165
-0.16
-0.125
-0.1
-0.075
-0.075
-0.08
-0.095
-0.08
-0.05
-0.045
-0.045
-0.04
-0.06
-0.06
-0.045
-0.01
-0.01
-0.025
-0.025
-0.025
-0.005
0.015
0.02
0.015
0.01
0
-0.005
0.01
0.02
-0.005
-0.05
-0.06
-0.05
-0.04
-0.08
-0.115
-0.16
-0.17
-0.145
-0.135
-0.145
-0.19
-0.235
-0.265
-0.245
-0.22
-0.22
-0.225
-0.24
-0.21
-0.21
-0.25
-0.27
-0.31
-0.325
-0.33
-0.31
-0.275
-0.265
-0.265
-0.275
-0.265
-0.26
-0.27
-0.28
-0.285
-0.295
-0.28
-0.26
-0.27
-0.26
-0.28
-0.28
-0.27
-0.25
-0.24
-0.265
-0.29
-0.285
-0.26
-0.25
-0.205
-0.22
-0.22
-0.26
-0.27
-0.295
-0.295
-0.3
-0.295
-0.285
-0.27
-0.27
-0.255
-0.25
-0.245
-0.25
-0.235
-0.21
-0.185
-0.185
-0.195
-0.205
-0.21
-0.185
-0.17
-0.16
-0.15
-0.175
-0.185
-0.175
-0.18
-0.185
-0.165
-0.175
-0.19
-0.18
-0.195
-0.215
-0.225
-0.245
-0.23
-0.215
-0.205
-0.25
-0.27
-0.27
-0.255
-0.245
-0.22
-0.23
-0.265
-0.315
-0.345
-0.34
-0.32
-0.32
-0.335
-0.35
-0.34
-0.335
-0.325
-0.32
-0.32
-0.335
-0.34
-0.315
-0.295
-0.3
-0.3
-0.31
-0.305
-0.275
-0.27
-0.28
-0.315
-0.355
-0.385
-0.395
-0.355
-0.29
-0.155
0
0.215
0.48
0.75
0.975
1.04
0.915
0.595
0.215
-0.19
-0.64
-0.94
-0.985
-0.88
-0.735
-0.605
-0.51
-0.455
-0.41
-0.385
-0.36
-0.34
-0.34
-0.355
-0.355
-0.345
-0.33
-0.325
-0.32
-0.335
-0.36
-0.345
-0.33
-0.315
-0.32
-0.325
-0.33
-0.32
-0.3
-0.28
-0.25
-0.28
-0.305
-0.335
-0.305
-0.28
-0.275
-0.265
-0.265
-0.27
-0.25
-0.235
-0.22
-0.22
-0.225
-0.22
-0.195
-0.165
-0.165
-0.165
-0.17
-0.145
-0.13
-0.1
-0.095
-0.095
-0.075
-0.075
-0.045
-0.02
-0.015
-0.03
-0.04
-0.025
-0.01
-0.005
0.015
0.01
0
-0.005
0
0
0.005
0.02
0.03
0.015
0.025
0.04
0.025
0.015
0.005
0
0.01
0.005
-0.025
-0.05
-0.06
-0.085
-0.095
-0.105
-0.125
-0.145
-0.175
-0.19
-0.175
-0.18
-0.185
-0.19
-0.2
-0.19
-0.205
-0.195
-0.215
-0.23
-0.23
-0.23
-0.215
-0.22
-0.23
-0.235
-0.23
-0.22
-0.225
-0.245
-0.24
-0.255
-0.26
-0.26
-0.24
-0.22
-0.235
-0.27
-0.28
-0.27
-0.245
-0.235
-0.265
-0.275
-0.28
-0.285
-0.275
-0.25
-0.26
-0.25
-0.25
-0.26
-0.25
-0.245
-0.25
-0.255
-0.27
-0.265
-0.25
-0.265
-0.26
-0.255
-0.25
-0.24
-0.245
-0.265
-0.255
-0.26
-0.255
-0.24
-0.215
-0.195
-0.185
-0.195
-0.21
-0.21
-0.21
-0.19
-0.195
-0.215
-0.21
-0.205
-0.195
-0.185
-0.19
-0.195
-0.21
-0.22
-0.23
-0.22
-0.225
-0.255
-0.26
-0.25
-0.245
-0.245
-0.24
-0.26
-0.265
-0.275
-0.27
-0.27
-0.285
-0.33
-0.355
-0.36
-0.34
-0.33
-0.335
-0.355
-0.365
-0.355
-0.335
-0.335
-0.335
-0.34
-0.345
-0.355
-0.37
-0.37
-0.345
-0.335
-0.33
-0.335
-0.35
-0.355
-0.385
-0.44
-0.48
-0.455
-0.37
-0.25
-0.075
0.14
0.39
0.655
0.875
0.97
0.88
0.615
0.255
-0.22
-0.69
-0.965
-1.005
-0.92
-0.825
-0.705
-0.61
-0.51
-0.445
-0.44
-0.45
-0.44
-0.415
-0.395
-0.39
-0.41
-0.43
-0.44
-0.415
-0.405
-0.39
-0.39
-0.405
-0.405
-0.37
-0.345
-0.335
-0.36
-0.365
-0.365
-0.35
-0.31
-0.31
-0.32
-0.315
-0.295
-0.29
-0.3
-0.305
-0.3
-0.29
-0.26
-0.25
-0.225
-0.22
-0.255
-0.245
-0.23
-0.21
-0.18
-0.175
-0.185
-0.17
-0.145
-0.095
-0.075
-0.09
-0.14
-0.14
-0.1
-0.065
-0.04
-0.04
-0.05
-0.06
-0.045
-0.03
-0.02
-0.015
-0.015
-0.035
-0.04
-0.015
-0.025
-0.025
-0.05
-0.055
-0.06
-0.055
-0.075
-0.1
-0.15
-0.175
-0.185
-0.17
-0.19
-0.205
-0.24
-0.255
-0.255
-0.255
-0.275
-0.27
-0.275
-0.285
-0.3
-0.3
-0.29
-0.305
-0.325
-0.325
-0.32
-0.32
-0.31
-0.315
-0.335
-0.34
-0.33
-0.335
-0.295
-0.295
-0.295
-0.305
-0.31
-0.3
-0.285
-0.29
-0.31
-0.31
-0.325
-0.325
-0.315
-0.335
-0.33
-0.335
-0.33
-0.315
-0.31
-0.31
-0.305
-0.32
-0.34
-0.315
-0.275
-0.265
-0.255
-0.26
-0.24
-0.225
-0.215
-0.235
-0.25
-0.28
-0.27
-0.26
-0.24
-0.23
-0.26
-0.27
-0.27
-0.24
-0.22
-0.205
-0.24
-0.28
-0.28
-0.27
-0.255
-0.26
-0.275
-0.29
-0.27
-0.255
-0.25
-0.26
-0.275
-0.285
-0.305
-0.285
-0.3
-0.305
-0.33
-0.36
-0.355
-0.355
-0.345
-0.36
-0.36
-0.355
-0.34
-0.34
-0.35
-0.36
-0.365
-0.365
-0.375
-0.345
-0.315
-0.315
-0.33
-0.34
-0.355
-0.345
-0.345
-0.395
-0.43
-0.42
-0.37
-0.25
-0.1
0.055
0.27
0.525
0.8
0.96
0.955
0.745
0.4
0.02
-0.41
-0.765
-0.93
-0.9
-0.795
-0.69
-0.585
-0.49
-0.445
-0.43
-0.415
-0.395
-0.37
-0.36
-0.33
-0.325
-0.325
-0.345
-0.355
-0.34
-0.35
-0.355
-0.37
-0.36
-0.34
-0.33
-0.295
-0.295
-0.295
-0.325
-0.31
-0.295
-0.27
-0.265
-0.285
-0.285
-0.275
-0.245
-0.23
-0.22
-0.215
-0.235
-0.245
-0.24
-0.235
-0.225
-0.22
-0.22
-0.195
-0.195
-0.165
-0.16
-0.16
-0.145
-0.135
-0.095
-0.065
-0.06
-0.06
-0.07
-0.05
-0.02
0.005
0
0.015
0.01
0.01
0.04
0.045
0.035
-0.005
-0.02
-0.005
0.015
0.04
0.04
0.02
-0.01
0
0.015
0.025
0.02
-0.015
-0.04
-0.04
-0.04
-0.05
-0.045
-0.075
-0.105
-0.105
-0.12
-0.115
-0.13
-0.16
-0.17
-0.175
-0.16
-0.155
-0.145
-0.165
-0.19
-0.215
-0.22
-0.18
-0.18
-0.2
-0.255
-0.28
-0.265
-0.25
-0.25
-0.27
-0.28
-0.28
-0.26
-0.25
-0.245
-0.265
-0.265
-0.265
-0.235
-0.22
-0.215
-0.225
-0.245
-0.255
-0.26
-0.25
-0.22
-0.215
-0.235
-0.22
-0.215
-0.19
-0.19
-0.235
-0.28
-0.28
-0.245
-0.235
-0.23
-0.23
-0.23
-0.225
-0.22
-0.215
-0.23
-0.235
-0.25
-0.25
-0.24
-0.22
-0.205
-0.21
-0.205
-0.215
-0.205
-0.185
-0.185
-0.18
-0.18
-0.18
-0.18
-0.17
-0.18
-0.195
-0.205
-0.195
-0.185
-0.195
-0.185
-0.195
-0.225
-0.24
-0.235
-0.225
-0.225
-0.23
-0.24
-0.235
-0.23
-0.205
-0.225
-0.25
-0.25
-0.275
-0.27
-0.27
-0.295
-0.3
-0.305
-0.315
-0.335
-0.315
-0.315
-0.3
-0.315
-0.31
-0.29
-0.295
-0.315
-0.325
-0.315
-0.295
-0.295
-0.27
-0.27
-0.28
-0.3
-0.305
-0.31
-0.325
-0.34
-0.35
-0.31
-0.22
-0.08
0.115
0.315
0.54
0.77
0.965
1.07
0.995
0.75
0.41
0.02
-0.445
-0.81
-0.92
-0.87
-0.76
-0.665
-0.545
-0.455
-0.395
-0.365
-0.35
-0.35
-0.34
-0.335
-0.335
-0.335
-0.33
-0.345
-0.37
-0.35
-0.33
-0.33
-0.325
-0.32
-0.315
-0.3
-0.295
-0.31
-0.315
-0.32
-0.31
-0.275
-0.275
-0.295
-0.29
-0.29
-0.265
-0.235
-0.23
-0.22
-0.235
-0.235
-0.235
-0.22
-0.195
-0.21
-0.21
-0.215
-0.2
-0.17
-0.17
-0.15
-0.14
-0.135
-0.125
-0.12
-0.1
-0.1
-0.095
-0.095
-0.09
-0.065
-0.03
-0.025
-0.02
0
0.015
0.025
0.035
0.035
0.025
0.01
0.015
0.02
0.05
0.06
0.05
0.04
0.045
0.06
0.06
0.045
0.025
0.025
0.02
0.01
0.025
0.02
0.005
-0.01
-0.04
-0.07
-0.07
-0.08
-0.11
-0.14
-0.15
-0.175
-0.175
-0.195
-0.2
-0.23
-0.235
-0.235
-0.25
-0.27
-0.27
-0.26
-0.25
-0.235
-0.22
-0.225
-0.23
-0.235
-0.255
-0.245
-0.25
-0.265
-0.27
-0.26
-0.24
-0.255
-0.265
-0.27
-0.28
-0.305
-0.285
-0.26
-0.26
-0.285
-0.315
-0.325
-0.32
-0.29
-0.245
-0.245
-0.245
-0.265
-0.28
-0.265
-0.255
-0.255
-0.255
-0.26
-0.26
-0.25
-0.24
-0.24
-0.25
-0.265
-0.285
-0.28
-0.26
-0.25
-0.27
-0.27
-0.27
-0.265
-0.275
-0.27
-0.27
-0.26
-0.245
-0.23
-0.21
-0.22
-0.22
-0.225
-0.23
-0.215
-0.215
-0.215
-0.225
-0.225
-0.22
-0.23
-0.225
-0.225
-0.24
-0.255
-0.24
-0.225
-0.205
-0.215
-0.255
-0.27
-0.275
-0.25
-0.235
-0.24
-0.265
-0.29
-0.305
-0.27
-0.245
-0.26
-0.29
-0.305
-0.315
-0.33
-0.335
-0.36
-0.38
-0.395
-0.395
-0.385
-0.36
-0.375
-0.38
-0.38
-0.37
-0.36
-0.365
-0.365
-0.365
-0.365
-0.37
-0.36
-0.355
-0.36
-0.37
-0.38
-0.375
-0.375
-0.395
-0.415
-0.425
-0.41
-0.35
-0.255
-0.12
0.045
0.245
0.455
0.685
0.865
0.955
0.9
0.715
0.445
0.085
-0.335
-0.71
-0.925
-0.965
-0.89
-0.78
-0.67
-0.58
-0.51
-0.475
-0.47
-0.45
-0.415
-0.395
-0.38
-0.37
-0.38
-0.39
-0.395
-0.39
-0.395
-0.395
-0.4
-0.42
-0.395
-0.385
-0.4
-0.39
-0.365
-0.365
-0.36
-0.345
-0.35
-0.36
-0.38
-0.365
-0.335
-0.32
-0.315
-0.32
-0.335
-0.315
-0.295
-0.285
-0.285
-0.275
-0.285
-0.29
-0.265
-0.265
-0.265
-0.23
-0.22
-0.19
-0.17
-0.155
-0.17
-0.18
-0.18
-0.165
-0.12
-0.105
-0.085
-0.07
-0.055
-0.055
-0.04
-0.06
-0.065
-0.09
-0.065
-0.04
-0.03
-0.025
-0.025
-0.025
-0.03
-0.03
0.02
0.03
-0.01
-0.065
-0.105
-0.105
-0.1
-0.105
-0.11
-0.12
-0.135
-0.16
-0.17
-0.185
-0.205
-0.23
-0.245
-0.25
-0.235
-0.23
-0.275
-0.3
-0.325
-0.335
-0.315
-0.305
-0.295
-0.305
-0.29
-0.295
-0.285
-0.32
-0.35
-0.36
-0.365
-0.335
-0.34
-0.35
-0.35
-0.355
-0.33
-0.315
-0.32
-0.35
-0.38
-0.365
-0.36
-0.335
-0.32
-0.3
-0.3
-0.32
-0.335
-0.34
-0.315
-0.295
-0.295
-0.3
-0.3
-0.32
-0.295
-0.29
-0.3
-0.315
-0.33
-0.315
-0.3
-0.275
-0.285
-0.3
-0.31
-0.295
-0.295
-0.28
-0.275
-0.275
-0.28
-0.275
-0.245
-0.22
-0.225
-0.265
-0.275
-0.265
-0.235
-0.225
-0.235
-0.26
-0.265
-0.275
-0.275
-0.26
-0.255
-0.245
-0.255
-0.26
-0.26
-0.245
-0.245
-0.25
-0.255
-0.28
-0.275
-0.27
-0.27
-0.27
-0.275
-0.275
-0.28
-0.295
-0.3
-0.33
-0.32
-0.315
-0.31
-0.315
-0.345
-0.365
-0.375
-0.375
-0.385
-0.36
-0.37
-0.385
-0.38
-0.39
-0.365
-0.36
-0.355
-0.365
-0.365
-0.36
-0.345
-0.33
-0.335
-0.36
-0.38
-0.375
-0.365
-0.375
-0.395
-0.415
-0.41
-0.39
-0.335
-0.24
-0.115
0.02
0.19
0.425
0.69
0.93
1.055
1.025
0.835
0.555
0.215
-0.175
-0.565
-0.86
-0.95
-0.93
-0.83
-0.74
-0.645
-0.565
-0.505
-0.475
-0.455
-0.415
-0.4
-0.395
-0.4
-0.375
-0.38
-0.36
-0.36
-0.35
-0.355
-0.38
-0.365
-0.35
-0.345
-0.34
-0.35
-0.35
-0.34
-0.335
-0.335
-0.355
-0.35
-0.34
-0.325
-0.3
-0.31
-0.325
-0.31
-0.295
-0.285
-0.27
-0.25
-0.265
-0.265
-0.265
-0.255
-0.22
-0.22
-0.19
-0.19
-0.185
-0.16
-0.14
-0.125
-0.115
-0.125
-0.11
-0.09
-0.05
-0.025
-0.02
-0.02
-0.045
-0.04
-0.025
-0.015
-0.015
-0.01
0
0.025
0.035
0.035
0.015
0.02
0.025
0.03
0.04
0.03
0.03
0.015
0.025
0.025
0.03
0.02
0.01
-0.025
-0.03
-0.015
-0.005
-0.02
-0.05
-0.075
-0.1
-0.11
-0.11
-0.125
-0.135
-0.145
-0.165
-0.175
-0.18
-0.19
-0.2
-0.23
-0.22
-0.23
-0.205
-0.195
-0.195
-0.215
-0.235
-0.225
-0.205
-0.195
-0.195
-0.23
-0.22
-0.205
-0.2
-0.19
-0.215
-0.22
-0.22
-0.21
-0.19
-0.205
-0.21
-0.23
-0.22
-0.205
-0.18
-0.18
-0.195
-0.21
-0.21
-0.2
-0.19
-0.19
-0.19
-0.195
-0.2
-0.205
-0.2
-0.2
-0.2
-0.2
-0.215
-0.2
-0.185
-0.19
-0.195
-0.22
-0.215
-0.205
-0.185
-0.185
-0.2
-0.185
-0.14
-0.1
-0.075
-0.09
-0.11
-0.135
-0.14
-0.12
-0.11
-0.1
-0.105
-0.125
-0.125
-0.135
-0.13
-0.145
-0.17
-0.165
-0.155
-0.14
-0.14
-0.145
-0.145
-0.135
-0.16
-0.165
-0.165
-0.175
-0.21
-0.22
-0.205
-0.18
-0.185
-0.2
-0.24
-0.27
-0.24
-0.21
-0.21
-0.215
-0.23
-0.25
-0.245
-0.235
-0.215
-0.21
-0.215
-0.21
-0.225
-0.225
-0.21
-0.235
-0.265
-0.315
-0.32
-0.29
-0.195
-0.09
0.04
0.225
0.47
0.76
1.015
1.19
1.24
1.125
0.845
0.515
0.13
-0.32
-0.705
-0.84
-0.785
-0.65
-0.52
-0.42
-0.37
-0.325
-0.295
-0.245
-0.22
-0.21
-0.22
-0.245
-0.25
-0.23
-0.225
-0.21
-0.235
-0.225
-0.23
-0.2
-0.205
-0.195
-0.21
-0.215
-0.215
-0.19
-0.175
-0.175
-0.195
-0.19
-0.175
-0.155
-0.145
-0.14
-0.145
-0.14
-0.14
-0.125
-0.105
-0.095
-0.09
-0.1
-0.095
-0.09
-0.08
-0.055
-0.04
-0.035
-0.04
-0.02
0
0.01
0.015
0.02
0.025
0.045
0.075
0.075
0.065
0.07
0.09
0.12
0.145
0.15
0.125
0.115
0.135
0.15
0.15
0.165
0.16
0.155
0.155
0.17
0.165
0.16
0.155
0.14
0.135
0.14
0.15
0.125
0.105
0.06
0.025
0.03
0.03
0.02
0
-0.035
-0.06
-0.055
-0.06
-0.07
-0.08
-0.095
-0.105
-0.1
-0.08
-0.07
-0.095
-0.115
-0.115
-0.11
-0.11
-0.105
-0.13
-0.135
-0.13
-0.12
-0.085
-0.1
-0.12
-0.14
-0.12
-0.095
-0.065
-0.07
-0.09
-0.13
-0.15
-0.135
-0.1
-0.095
-0.1
-0.105
-0.13
-0.115
-0.09
-0.1
-0.12
-0.115
-0.115
-0.095
-0.075
-0.09
-0.11
-0.115
-0.11
-0.1
-0.08
-0.075
-0.09
-0.105
-0.095
-0.07
-0.08
-0.07
-0.09
-0.085
-0.095
-0.1
-0.085
-0.07
-0.08
-0.075
-0.07
-0.05
-0.015
-0.02
-0.025
-0.055
-0.07
-0.055
-0.01
0
0
-0.025
-0.035
-0.02
0
-0.01
-0.01
-0.015
0
-0.005
0.025
0.005
-0.01
-0.03
-0.04
-0.035
-0.01
-0.01
-0.035
-0.05
-0.06
-0.03
-0.025
-0.05
-0.07
-0.09
-0.085
-0.08
-0.085
-0.11
-0.145
-0.15
-0.15
-0.115
-0.095
-0.12
-0.155
-0.17
-0.16
-0.15
-0.135
-0.115
-0.12
-0.115
-0.115
-0.11
-0.11
-0.115
-0.15
-0.18
-0.18
-0.16
-0.155
-0.185
-0.205
-0.175
-0.11
-0.005
0.14
0.315
0.52
0.755
0.99
1.215
1.305
1.215
0.955
0.63
0.265
-0.14
-0.505
-0.685
-0.69
-0.605
-0.505
-0.41
-0.335
-0.28
-0.25
-0.22
-0.19
-0.17
-0.165
-0.17
-0.17
-0.15
-0.145
-0.125
-0.11
-0.135
-0.155
-0.145
-0.13
-0.11
-0.11
-0.105
-0.11
-0.105
-0.1
-0.09
-0.07
-0.085
-0.08
-0.105
-0.125
-0.11
-0.095
-0.085
-0.085
-0.1
-0.1
-0.08
-0.07
-0.035
-0.04
-0.045
-0.05
-0.045
-0.025
-0.005
0.015
0.02
0.05
0.07
0.075
0.095
0.1
0.095
0.1
0.125
0.135
0.145
0.155
0.175
0.19
0.22
0.23
0.225
0.215
0.21
0.215
0.22
0.235
0.255
0.235
0.21
0.225
0.23
0.27
0.255
0.23
0.225
0.225
0.22
0.235
0.205
0.175
0.16
0.14
0.14
0.13
0.1
0.065
0.035
0.02
0
-0.02
-0.03
-0.03
-0.05
-0.05
-0.025
-0.005
-0.035
-0.055
-0.075
-0.08
-0.045
-0.04
-0.055
-0.09
-0.095
-0.085
-0.075
-0.045
-0.05
-0.055
-0.055
-0.075
-0.06
-0.04
-0.06
-0.085
-0.09
-0.1
-0.07
-0.05
-0.065
-0.085
-0.07
-0.07
-0.055
-0.04
-0.055
-0.07
-0.07
-0.06
-0.05
-0.06
-0.065
-0.065
-0.065
-0.075
-0.08
-0.07
-0.07
-0.065
-0.065
-0.055
-0.045
-0.025
-0.035
-0.04
-0.035
-0.02
-0.005
0.01
0.015
0.01
-0.005
0
0
0
0.01
0.01
0
-0.01
-0.015
-0.01
-0.015
-0.02
-0.035
-0.05
-0.035
-0.03
-0.045
-0.095
-0.105
-0.095
-0.065
-0.045
-0.055
-0.07
-0.09
-0.125
-0.135
-0.155
-0.15
-0.15
-0.165
-0.165
-0.16
-0.165
-0.165
-0.175
-0.19
-0.185
-0.165
-0.155
-0.14
-0.145
-0.165
-0.17
-0.155
-0.16
-0.16
-0.16
-0.165
-0.19
-0.2
-0.21
-0.245
-0.275
-0.275
-0.215
-0.09
0.07
0.29
0.545
0.79
1.015
1.155
1.155
0.975
0.69
0.3
-0.135
-0.56
-0.78
-0.795
-0.735
-0.665
-0.555
-0.43
-0.37
-0.33
-0.31
-0.31
-0.3
-0.27
-0.245
-0.23
-0.245
-0.245
-0.23
-0.2
-0.18
-0.2
-0.21
-0.205
-0.21
-0.21
-0.195
-0.205
-0.235
-0.24
-0.235
-0.205
-0.19
-0.19
-0.19
-0.195
-0.185
-0.15
-0.135
-0.145
-0.155
-0.165
-0.15
-0.125
-0.105
-0.08
-0.105
-0.105
-0.095
-0.07
-0.04
-0.04
-0.045
-0.05
-0.04
-0.015
0.025
0.02
0
0.005
0.025
0.065
0.075
0.085
0.08
0.075
0.08
0.09
0.115
0.115
0.11
0.12
0.125
0.14
0.145
0.12
0.105
0.095
0.095
0.105
0.14
0.135
0.1
0.055
0.03
0.04
0.035
-0.005
-0.025
-0.04
-0.05
-0.055
-0.08
-0.085
-0.095
-0.13
-0.145
-0.16
-0.165
-0.16
-0.195
-0.185
-0.2
-0.195
-0.17
-0.185
-0.2
-0.205
-0.205
-0.18
-0.2
-0.21
-0.215
-0.21
-0.195
-0.17
-0.17
-0.185
-0.215
-0.215
-0.23
-0.23
-0.215
-0.2
-0.22
-0.215
-0.225
-0.205
-0.205
-0.205
-0.235
-0.245
-0.255
-0.25
-0.245
-0.225
-0.235
-0.235
-0.24
-0.215
-0.195
-0.185
-0.18
-0.2
-0.215
-0.215
-0.215
-0.22
-0.21
-0.2
-0.205
-0.195
-0.175
-0.155
-0.155
-0.16
-0.185
-0.155
-0.14
-0.14
-0.14
-0.15
-0.175
-0.16
-0.145
-0.14
-0.15
-0.165
-0.2
-0.205
-0.185
-0.185
-0.19
-0.195
-0.205
-0.21
-0.22
-0.21
-0.225
-0.24
-0.24
-0.225
-0.2
-0.205
-0.22
-0.25
-0.265
-0.255
-0.235
-0.255
-0.285
-0.305
-0.305
-0.285
-0.28
-0.295
-0.31
-0.31
-0.315
-0.3
-0.3
-0.3
-0.3
-0.315
-0.315
-0.31
-0.295
-0.29
-0.295
-0.305
-0.33
-0.35
-0.35
-0.37
-0.35
-0.285
-0.15
0.04
0.255
0.505
0.75
0.95
1.04
1.01
0.79
0.44
-0.035
-0.485
-0.825
-0.925
-0.875
-0.8
-0.72
-0.63
-0.535
-0.455
-0.405
-0.375
-0.36
-0.37
-0.355
-0.35
-0.33
-0.32
-0.325
-0.335
-0.33
-0.33
-0.32
-0.32
-0.325
-0.335
-0.335
-0.315
-0.295
-0.29
-0.305
-0.325
-0.315
-0.295
-0.285
-0.275
-0.265
-0.28
-0.265
-0.255
-0.245
-0.24
-0.245
-0.245
-0.24
-0.22
-0.195
-0.18
-0.19
-0.18
-0.165
-0.145
-0.125
-0.115
-0.11
-0.12
-0.095
-0.065
-0.04
-0.035
-0.03
-0.02
-0.025
0
0.035
0.03
0.015
0.01
0.005
0.03
0.05
0.055
0.06
0.045
0.02
0.02
0.03
0.02
0
-0.005
-0.01
-0.005
-0.01
-0.035
-0.05
-0.07
-0.09
-0.095
-0.105
-0.12
-0.15
-0.18
-0.19
-0.195
-0.185
-0.205
-0.23
-0.235
-0.24
-0.22
-0.23
-0.235
-0.245
-0.24
-0.24
-0.255
-0.235
-0.235
-0.24
-0.24
-0.245
-0.23
-0.245
-0.235
-0.235
-0.245
-0.23
-0.22
-0.225
-0.23
-0.265
-0.245
-0.245
-0.245
-0.21
-0.22
-0.225
-0.215
-0.225
-0.225
-0.22
-0.21
-0.22
-0.225
-0.225
-0.215
-0.21
-0.225
-0.225
-0.23
-0.235
-0.215
-0.185
-0.175
-0.18
-0.18
-0.185
-0.165
-0.15
-0.15
-0.175
-0.17
-0.165
-0.135
-0.13
-0.13
-0.14
-0.145
-0.155
-0.145
-0.145
-0.14
-0.145
-0.175
-0.165
-0.17
-0.175
-0.19
-0.205
-0.225
-0.22
-0.205
-0.2
-0.195
-0.205
-0.21
-0.205
-0.195
-0.185
-0.195
-0.225
-0.265
-0.28
-0.28
-0.255
-0.26
-0.27
-0.275
-0.28
-0.26
-0.255
-0.25
-0.25
-0.265
-0.275
-0.255
-0.24
-0.245
-0.235
-0.25
-0.255
-0.25
-0.25
-0.285
-0.305
-0.31
-0.28
-0.19
-0.04
0.135
0.32
0.57
0.835
1.07
1.185
1.095
0.805
0.425
-0.035
-0.49
-0.79
-0.845
-0.755
-0.635
-0.545
-0.435
-0.365
-0.31
-0.295
-0.285
-0.29
-0.295
-0.26
-0.255
-0.27
-0.27
-0.275
-0.26
-0.25
-0.24
-0.26
-0.275
-0.265
-0.25
-0.245
-0.23
-0.25
-0.25
-0.24
-0.23
-0.215
-0.215
-0.23
-0.225
-0.23
-0.225
-0.18
-0.17
-0.175
-0.165
-0.16
-0.16
-0.13
-0.125
-0.105
-0.11
-0.125
-0.115
-0.08
-0.065
-0.075
-0.075
-0.065
-0.04
-0.02
-0.005
-0.005
-0.005
0
0.005
0.05
0.06
0.05
0.05
0.06
0.07
0.09
0.09
0.075
0.08
0.08
0.1
0.115
0.105
0.105
0.08
0.075
0.085
0.105
0.075
0.045
0.035
0.02
0.04
0.04
0.025
-0.015
-0.05
-0.055
-0.065
-0.07
-0.075
-0.105
-0.14
-0.15
-0.14
-0.135
-0.135
-0.155
-0.17
-0.18
-0.175
-0.16
-0.15
-0.16
-0.18
-0.17
-0.17
-0.165
-0.17
-0.185
-0.195
-0.195
-0.19
-0.17
-0.155
-0.17
-0.18
-0.185
-0.17
-0.165
-0.155
-0.18
-0.185
-0.185
-0.165
-0.155
-0.165
-0.16
-0.19
-0.205
-0.19
-0.185
-0.17
-0.18
-0.205
-0.205
-0.185
-0.195
-0.18
-0.205
-0.21
-0.195
-0.18
-0.185
-0.185
-0.195
-0.185
-0.165
-0.14
-0.125
-0.105
-0.125
-0.125
-0.125
-0.09
-0.075
-0.09
-0.1
-0.115
-0.13
-0.125
-0.12
-0.12
-0.125
-0.14
-0.155
-0.13
-0.135
-0.15
-0.16
-0.165
-0.16
-0.145
-0.145
-0.16
-0.18
-0.17
-0.155
-0.145
-0.14
-0.145
-0.18
-0.19
-0.225
-0.24
-0.225
-0.23
-0.24
-0.26
-0.27
-0.265
-0.245
-0.25
-0.275
-0.3
-0.285
-0.26
-0.265
-0.265
-0.27
-0.285
-0.275
-0.255
-0.255
-0.295
-0.325
-0.295
-0.185
-0.005
0.25
0.565
0.87
1.11
1.15
0.925
0.515
-0.025
-0.565
-0.92
-0.92
-0.785
-0.62
-0.51
-0.46
-0.415
-0.375
-0.33
-0.295
-0.285
-0.305
-0.3
-0.295
-0.27
-0.26
-0.28
-0.3
-0.29
-0.29
-0.275
-0.26
-0.255
-0.26
-0.28
-0.29
-0.265
-0.245
-0.215
-0.22
-0.245
-0.26
-0.245
-0.225
-0.215
-0.225
-0.22
-0.22
-0.22
-0.195
-0.18
-0.195
-0.205
-0.2
-0.175
-0.135
-0.13
-0.145
-0.145
-0.14
-0.105
-0.09
-0.08
-0.085
-0.085
-0.055
-0.045
-0.015
-0.01
-0.025
-0.01
0.01
0.035
0.055
0.07
0.055
0.05
0.06
0.075
0.095
0.095
0.095
0.085
0.075
0.09
0.115
0.105
0.095
0.06
0.065
0.055
0.06
0.07
0.05
0.03
0.01
-0.015
-0.015
-0.02
-0.045
-0.065
-0.095
-0.115
-0.13
-0.135
-0.145
-0.15
-0.17
-0.145
-0.14
-0.155
-0.16
-0.19
-0.19
-0.19
-0.2
-0.2
-0.205
-0.22
-0.23
-0.23
-0.21
-0.21
-0.205
-0.22
-0.205
-0.21
-0.23
-0.23
-0.225
-0.24
-0.23
-0.23
-0.225
-0.21
-0.22
-0.235
-0.24
-0.23
-0.225
-0.2
-0.205
-0.23
-0.235
-0.225
-0.22
-0.22
-0.215
-0.235
-0.235
-0.23
-0.21
-0.215
-0.235
-0.26
-0.27
-0.245
-0.235
-0.22
-0.23
-0.245
-0.25
-0.225
-0.21
-0.2
-0.205
-0.2
-0.18
-0.165
-0.16
-0.17
-0.175
-0.175
-0.17
-0.155
-0.15
-0.165
-0.185
-0.19
-0.185
-0.17
-0.165
-0.175
-0.18
-0.195
-0.195
-0.195
-0.205
-0.215
-0.235
-0.245
-0.25
-0.24
-0.23
-0.245
-0.215
-0.21
-0.21
-0.21
-0.24
-0.24
-0.255
-0.275
-0.285
-0.295
-0.285
-0.285
-0.275
-0.275
-0.28
-0.295
-0.285
-0.29
-0.325
-0.325
-0.32
-0.29
-0.275
-0.27
-0.28
-0.315
-0.31
-0.275
-0.26
-0.27
-0.295
-0.32
-0.365
-0.395
-0.39
-0.36
-0.29
-0.215
-0.09
0.075
0.28
0.49
0.73
0.92
1.045
1.03
0.865
0.63
0.335
-0.035
-0.44
-0.77
-0.91
-0.885
-0.81
-0.72
-0.645
-0.55
-0.455
-0.41
-0.385
-0.375
-0.36
-0.325
-0.32
-0.32
-0.335
-0.34
-0.345
-0.34
-0.335
-0.32
-0.32
-0.3
-0.305
-0.305
-0.3
-0.315
-0.31
-0.29
-0.295
-0.295
-0.28
-0.265
-0.275
-0.27
-0.275
-0.265
-0.25
-0.245
-0.25
-0.245
-0.26
-0.24
-0.22
-0.215
-0.22
-0.23
-0.22
-0.205
-0.18
-0.175
-0.15
-0.15
-0.14
-0.12
-0.105
-0.08
-0.07
-0.07
-0.075
-0.065
-0.045
-0.025
0
0.005
0.005
0.03
0.04
0.03
0.035
0.035
0.03
0.05
0.06
0.055
0.055
0.05
0.055
0.06
0.07
0.075
0.07
0.055
0.05
0.065
0.065
0.03
0.03
0.02
-0.02
-0.01
-0.02
-0.05
-0.09
-0.11
-0.13
-0.135
-0.135
-0.155
-0.18
-0.195
-0.195
-0.185
-0.19
-0.21
-0.22
-0.245
-0.225
-0.22
-0.225
-0.215
-0.215
-0.215
-0.225
-0.22
-0.2
-0.19
-0.195
-0.23
-0.24
-0.225
-0.21
-0.215
-0.235
-0.255
-0.24
-0.225
-0.215
-0.22
-0.225
-0.24
-0.25
-0.245
-0.225
-0.23
-0.245
-0.235
-0.255
-0.23
-0.21
-0.2
-0.225
-0.23
-0.24
-0.23
-0.225
-0.215
-0.23
-0.23
-0.245
-0.24
-0.235
-0.215
-0.215
-0.225
-0.24
-0.205
-0.17
-0.165
-0.175
-0.18
-0.18
-0.165
-0.145
-0.145
-0.15
-0.155
-0.15
-0.15
-0.15
-0.165
-0.17
-0.17
-0.185
-0.195
-0.195
-0.185
-0.2
-0.2
-0.2
-0.205
-0.195
-0.195
-0.22
-0.255
-0.25
-0.22
-0.205
-0.215
-0.225
-0.25
-0.265
-0.265
-0.275
-0.295
-0.3
-0.315
-0.325
-0.29
-0.28
-0.275
-0.3
-0.29
-0.29
-0.275
-0.265
-0.27
-0.28
-0.285
-0.31
-0.31
-0.29
-0.27
-0.28
-0.3
-0.305
-0.32
-0.32
-0.34
-0.345
-0.335
-0.31
-0.205
-0.055
0.14
0.345
0.565
0.82
1.035
1.12
1.005
0.745
0.37
-0.05
-0.505
-0.82
-0.895
-0.85
-0.765
-0.69
-0.585
-0.48
-0.4
-0.38
-0.36
-0.345
-0.305
-0.3
-0.29
-0.305
-0.32
-0.32
-0.285
-0.27
-0.255
-0.27
-0.29
-0.29
-0.285
-0.275
-0.265
-0.275
-0.285
-0.28
-0.27
-0.275
-0.265
-0.275
-0.27
-0.265
-0.235
-0.195
-0.19
-0.185
-0.2
-0.185
-0.155
-0.145
-0.13
-0.125
-0.12
-0.13
-0.12
-0.11
-0.095
-0.1
-0.095
-0.09
-0.055
-0.04
-0.03
-0.035
0
-0.005
0.025
0.03
0.045
0.06
0.045
0.07
0.085
0.095
0.085
0.09
0.07
0.09
0.1
0.11
0.115
0.13
0.12
0.13
0.115
0.1
0.085
0.105
0.11
0.105
0.11
0.12
0.11
0.095
0.065
0.045
0.05
0.03
-0.01
-0.035
-0.04
-0.04
-0.055
-0.07
-0.065
-0.09
-0.105
-0.125
-0.13
-0.14
-0.125
-0.115
-0.135
-0.145
-0.16
-0.165
-0.155
-0.16
-0.17
-0.17
-0.145
-0.135
-0.14
-0.16
-0.165
-0.165
-0.16
-0.165
-0.135
-0.145
-0.15
-0.145
-0.155
-0.15
-0.145
-0.155
-0.135
-0.13
-0.1
-0.12
-0.11
-0.14
-0.135
-0.165
-0.135
-0.145
-0.13
-0.12
-0.125
-0.12
-0.11
-0.105
-0.1
-0.11
-0.135
-0.14
-0.145
-0.125
-0.13
-0.13
-0.115
-0.115
-0.11
-0.1
-0.1
-0.095
-0.09
-0.085
-0.08
-0.065
-0.08
-0.07
-0.065
-0.05
-0.03
-0.025
-0.045
-0.07
-0.075
-0.095
-0.085
-0.09
-0.085
-0.08
-0.095
-0.125
-0.14
-0.135
-0.14
-0.155
-0.155
-0.165
-0.155
-0.13
-0.115
-0.11
-0.12
-0.14
-0.15
-0.125
-0.145
-0.165
-0.2
-0.22
-0.22
-0.21
-0.195
-0.2
-0.21
-0.215
-0.215
-0.205
-0.21
-0.225
-0.235
-0.23
-0.2
-0.185
-0.195
-0.225
-0.26
-0.265
-0.24
-0.215
-0.215
-0.235
-0.27
-0.3
-0.265
-0.22
-0.185
-0.145
-0.07
0.055
0.26
0.54
0.79
1.01
1.125
1.095
0.895
0.61
0.26
-0.155
-0.565
-0.845
-0.88
-0.78
-0.675
-0.57
-0.48
-0.415
-0.37
-0.32
-0.285
-0.28
-0.275
-0.26
-0.245
-0.245
-0.26
-0.28
-0.28
-0.275
-0.255
-0.255
-0.265
-0.27
-0.285
-0.255
-0.22
-0.2
-0.23
-0.265
-0.27
-0.255
-0.225
-0.205
-0.21
-0.235
-0.235
-0.23
-0.2
-0.195
-0.185
-0.18
-0.17
-0.165
-0.15
-0.15
-0.145
-0.165
-0.175
-0.175
-0.125
-0.095
-0.085
-0.105
-0.11
-0.095
-0.08
-0.055
-0.035
-0.025
-0.035
-0.025
-0.025
-0.02
0.015
0.045
0.035
0.02
0.03
0.05
0.05
0.045
0.045
0.045
0.06
0.07
0.075
0.07
0.055
0.03
0.035
0.04
0.045
0.045
0.01
0.01
0
0
-0.01
-0.03
-0.065
-0.095
-0.085
-0.085
-0.095
-0.13
-0.155
-0.155
-0.15
-0.14
-0.175
-0.23
-0.26
-0.265
-0.265
-0.25
-0.245
-0.25
-0.25
-0.25
-0.245
-0.25
-0.25
-0.275
-0.285
-0.29
-0.265
-0.25
-0.245
-0.245
-0.255
-0.27
-0.27
-0.275
-0.27
-0.255
-0.27
-0.28
-0.26
-0.255
-0.245
-0.245
-0.255
-0.255
-0.24
-0.24
-0.23
-0.25
-0.27
-0.28
-0.275
-0.255
-0.24
-0.255
-0.255
-0.26
-0.26
-0.26
-0.265
-0.285
-0.28
-0.275
-0.25
-0.215
-0.2
-0.22
-0.235
-0.225
-0.245
-0.215
-0.205
-0.195
-0.195
-0.205
-0.205
-0.175
-0.165
-0.185
-0.185
-0.185
-0.185
-0.17
-0.185
-0.22
-0.26
-0.285
-0.29
-0.275
-0.245
-0.255
-0.275
-0.28
-0.265
-0.26
-0.235
-0.225
-0.25
-0.305
-0.345
-0.335
-0.33
-0.32
-0.32
-0.34
-0.34
-0.315
-0.305
-0.315
-0.345
-0.355
-0.345
-0.32
-0.315
-0.3
-0.285
-0.3
-0.325
-0.33
-0.36
-0.355
-0.345
-0.35
-0.37
-0.41
-0.425
-0.415
-0.365
-0.28
-0.165
0.025
0.23
0.49
0.7
0.9
1.015
0.985
0.775
0.45
0.035
-0.425
-0.785
-0.91
-0.875
-0.795
-0.725
-0.635
-0.54
-0.465
-0.415
-0.415
-0.41
-0.39
-0.38
-0.35
-0.345
-0.365
-0.39
-0.4
-0.38
-0.34
-0.31
-0.31
-0.33
-0.345
-0.34
-0.34
-0.335
-0.34
-0.34
-0.34
-0.345
-0.345
-0.315
-0.315
-0.335
-0.345
-0.34
-0.305
-0.27
-0.265
-0.28
-0.285
-0.265
-0.235
-0.22
-0.22
-0.25
-0.26
-0.26
-0.25
-0.235
-0.21
-0.19
-0.18
-0.155
-0.145
-0.14
-0.15
-0.145
-0.145
-0.105
-0.075
-0.06
-0.055
-0.055
-0.06
-0.065
-0.055
-0.045
-0.045
-0.035
-0.045
-0.03
0.01
0.035
0.035
0.015
-0.005
0
-0.005
0.015
0.015
-0.015
-0.03
-0.025
-0.01
-0.02
-0.04
-0.06
-0.08
-0.095
-0.1
-0.12
-0.155
-0.17
-0.185
-0.185
-0.185
-0.2
-0.22
-0.25
-0.285
-0.285
-0.3
-0.29
-0.255
-0.27
-0.275
-0.265
-0.28
-0.285
-0.305
-0.315
-0.315
-0.315
-0.32
-0.3
-0.285
-0.31
-0.32
-0.32
-0.31
-0.295
-0.29
-0.325
-0.35
-0.355
-0.335
-0.295
-0.28
-0.31
-0.315
-0.3
-0.285
-0.285
-0.275
-0.29
-0.3
-0.29
-0.29
-0.275
-0.28
-0.29
-0.3
-0.29
-0.275
-0.255
-0.275
-0.28
-0.285
-0.28
-0.25
-0.235
-0.22
-0.23
-0.225
-0.215
-0.21
-0.215
-0.21
-0.22
-0.205
-0.21
-0.205
-0.22
-0.22
-0.24
-0.245
-0.26
-0.225
-0.215
-0.22
-0.245
-0.255
-0.255
-0.26
-0.245
-0.24
-0.26
-0.295
-0.285
-0.26
-0.26
-0.27
-0.295
-0.32
-0.32
-0.315
-0.33
-0.375
-0.365
-0.36
-0.345
-0.33
-0.325
-0.315
-0.35
-0.375
-0.39
-0.39
-0.35
-0.34
-0.355
-0.36
-0.375
-0.35
-0.345
-0.35
-0.35
-0.38
-0.39
-0.385
-0.4
-0.405
-0.36
-0.27
-0.14
0.05
0.28
0.52
0.76
0.955
1.035
0.915
0.65
0.285
-0.185
-0.65
-0.92
-0.94
-0.86
-0.76
-0.675
-0.57
-0.47
-0.42
-0.415
-0.4
-0.405
-0.385
-0.38
-0.37
-0.37
-0.38
-0.38
-0.385
-0.37
-0.355
-0.335
-0.335
-0.36
-0.375
-0.36
-0.355
-0.35
-0.34
-0.33
-0.33
-0.315
-0.315
-0.31
-0.315
-0.325
-0.32
-0.295
-0.295
-0.295
-0.305
-0.315
-0.295
-0.25
-0.235
-0.22
-0.225
-0.22
-0.21
-0.2
-0.19
-0.185
-0.18
-0.175
-0.17
-0.14
-0.14
-0.11
-0.1
-0.08
-0.075
-0.05
-0.02
0
-0.01
-0.01
0
0.015
0.015
0.03
0.025
0.015
0.015
0.025
0.04
0.05
0.035
0
-0.025
-0.03
-0.015
0.005
-0.005
-0.04
-0.06
-0.08
-0.07
-0.08
-0.105
-0.135
-0.165
-0.175
-0.185
-0.175
-0.185
-0.18
-0.2
-0.21
-0.205
-0.205
-0.22
-0.24
-0.255
-0.24
-0.225
-0.22
-0.245
-0.265
-0.285
-0.28
-0.28
-0.28
-0.28
-0.275
-0.285
-0.27
-0.25
-0.25
-0.26
-0.275
-0.275
-0.26
-0.26
-0.265
-0.27
-0.28
-0.28
-0.28
-0.27
-0.255
-0.255
-0.275
-0.27
-0.245
-0.23
-0.22
-0.23
-0.265
-0.28
-0.26
-0.255
-0.25
-0.26
-0.285
-0.275
-0.25
-0.225
-0.215
-0.225
-0.235
-0.25
-0.225
-0.19
-0.19
-0.215
-0.22
-0.22
-0.195
-0.175
-0.155
-0.175
-0.195
-0.18
-0.165
-0.175
-0.18
-0.21
-0.235
-0.24
-0.225
-0.215
-0.21
-0.195
-0.195
-0.215
-0.225
-0.235
-0.23
-0.225
-0.235
-0.24
-0.235
-0.23
-0.23
-0.255
-0.275
-0.275
-0.3
-0.305
-0.32
-0.32
-0.325
-0.32
-0.315
-0.31
-0.325
-0.325
-0.335
-0.34
-0.325
-0.305
-0.3
-0.32
-0.32
-0.33
-0.31
-0.285
-0.28
-0.295
-0.335
-0.37
-0.38
-0.375
-0.335
-0.31
-0.225
-0.085
0.095
0.315
0.55
0.785
0.99
1.095
1.06
0.865
0.555
0.14
-0.3
-0.695
-0.885
-0.89
-0.81
-0.69
-0.575
-0.49
-0.43
-0.38
-0.35
-0.34
-0.34
-0.335
-0.315
-0.295
-0.295
-0.305
-0.31
-0.32
-0.33
-0.315
-0.3
-0.305
-0.325
-0.35
-0.33
-0.31
-0.28
-0.27
-0.29
-0.3
-0.275
-0.265
-0.235
-0.245
-0.275
-0.265
-0.245
-0.225
-0.21
-0.225
-0.23
-0.215
-0.19
-0.16
-0.14
-0.145
-0.16
-0.17
-0.135
-0.09
-0.08
-0.07
-0.075
-0.075
-0.08
-0.05
-0.01
0
0.005
0
0.03
0.035
0.035
0.04
0.035
0.035
0.06
0.065
0.07
0.065
0.025
0.035
0.045
0.065
0.075
0.065
0.06
0.04
0.03
0.025
0.035
0.03
0.01
0
-0.02
-0.035
-0.035
-0.065
-0.095
-0.12
-0.125
-0.13
-0.14
-0.15
-0.175
-0.19
-0.185
-0.17
-0.165
-0.18
-0.195
-0.205
-0.2
-0.18
-0.17
-0.195
-0.215
-0.22
-0.205
-0.195
-0.185
-0.2
-0.215
-0.215
-0.205
-0.195
-0.195
-0.19
-0.205
-0.21
-0.22
-0.21
-0.21
-0.215
-0.235
-0.235
-0.23
-0.2
-0.195
-0.2
-0.21
-0.215
-0.23
-0.215
-0.22
-0.22
-0.215
-0.21
-0.19
-0.185
-0.2
-0.2
-0.21
-0.2
-0.18
-0.165
-0.155
-0.15
-0.14
-0.14
-0.13
-0.125
-0.13
-0.145
-0.15
-0.13
-0.125
-0.1
-0.11
-0.125
-0.145
-0.15
-0.15
-0.155
-0.16
-0.195
-0.21
-0.21
-0.2
-0.17
-0.17
-0.18
-0.18
-0.185
-0.17
-0.185
-0.19
-0.2
-0.225
-0.245
-0.245
-0.235
-0.235
-0.245
-0.275
-0.28
-0.265
-0.24
-0.245
-0.24
-0.26
-0.26
-0.255
-0.24
-0.245
-0.26
-0.275
-0.28
-0.275
-0.27
-0.275
-0.31
-0.355
-0.365
-0.35
-0.27
-0.155
0.005
0.18
0.405
0.705
0.985
1.18
1.18
0.97
0.59
0.11
-0.37
-0.73
-0.855
-0.81
-0.695
-0.585
-0.48
-0.405
-0.37
-0.345
-0.325
-0.31
-0.29
-0.285
-0.29
-0.31
-0.31
-0.31
-0.275
-0.265
-0.27
-0.29
-0.305
-0.29
-0.265
-0.265
-0.255
-0.25
-0.25
-0.24
-0.235
-0.225
-0.235
-0.25
-0.225
-0.235
-0.215
-0.205
-0.225
-0.24
-0.21
-0.185
-0.2
-0.17
-0.185
-0.2
-0.17
-0.175
-0.17
-0.16
-0.16
-0.135
-0.11
-0.075
-0.065
-0.075
-0.04
-0.035
-0.03
-0.025
-0.005
0.01
0.005
0.015
0.005
0.05
0.05
0.06
0.045
0.04
0.045
0.06
0.07
0.085
0.07
0.065
0.06
0.06
0.06
0.06
0.07
0.07
0.05
0.03
0.05
0.03
0.03
-0.005
-0.03
-0.045
-0.055
-0.055
-0.085
-0.12
-0.135
-0.14
-0.13
-0.145
-0.16
-0.16
-0.175
-0.18
-0.17
-0.165
-0.18
-0.2
-0.2
-0.185
-0.165
-0.17
-0.19
-0.21
-0.22
-0.21
-0.195
-0.2
-0.22
-0.225
-0.235
-0.215
-0.21
-0.21
-0.22
-0.24
-0.24
-0.225
-0.215
-0.2
-0.23
-0.225
-0.235
-0.24
-0.215
-0.2
-0.215
-0.23
-0.245
-0.23
-0.21
-0.2
-0.21
-0.215
-0.22
-0.2
-0.185
-0.185
-0.205
-0.215
-0.195
-0.185
-0.18
-0.17
-0.155
-0.15
-0.14
-0.135
-0.14
-0.155
-0.17
-0.16
-0.135
-0.125
-0.13
-0.13
-0.155
-0.16
-0.16
-0.13
-0.125
-0.135
-0.14
-0.155
-0.16
-0.155
-0.155
-0.17
-0.185
-0.205
-0.21
-0.19
-0.185
-0.175
-0.185
-0.185
-0.195
-0.175
-0.185
-0.215
-0.275
-0.31
-0.325
-0.31
-0.29
-0.28
-0.285
-0.31
-0.315
-0.31
-0.295
-0.3
-0.29
-0.28
-0.275
-0.285
-0.285
-0.27
-0.265
-0.29
-0.305
-0.305
-0.305
-0.345
-0.355
-0.365
-0.33
-0.23
-0.075
0.105
0.31
0.565
0.815
1.02
1.115
1.015
0.745
0.4
-0.01
-0.465
-0.815
-0.93
-0.89
-0.745
-0.635
-0.525
-0.435
-0.39
-0.355
-0.355
-0.34
-0.34
-0.315
-0.3
-0.29
-0.29
-0.285
-0.285
-0.285
-0.285
-0.29
-0.3
-0.305
-0.3
-0.305
-0.31
-0.325
-0.305
-0.305
-0.3
-0.285
-0.275
-0.275
-0.295
-0.315
-0.28
-0.26
-0.255
-0.24
-0.25
-0.26
-0.24
-0.21
-0.2
-0.175
-0.17
-0.155
-0.135
-0.115
-0.095
-0.1
-0.085
-0.07
-0.06
-0.03
-0.025
-0.025
-0.02
-0.01
-0.025
-0.01
-0.005
0.02
0.03
0.035
0.045
0.065
0.075
0.075
0.06
0.05
0.055
0.08
0.085
0.1
0.09
0.075
0.07
0.075
0.075
0.045
0.01
-0.01
-0.005
0.005
-0.005
-0.04
-0.07
-0.085
-0.105
-0.115
-0.125
-0.13
-0.15
-0.165
-0.175
-0.2
-0.215
-0.215
-0.225
-0.23
-0.21
-0.205
-0.2
-0.205
-0.22
-0.22
-0.2
-0.185
-0.16
-0.155
-0.17
-0.18
-0.18
-0.19
-0.22
-0.21
-0.225
-0.245
-0.24
-0.235
-0.255
-0.25
-0.27
-0.27
-0.255
-0.24
-0.23
-0.245
-0.255
-0.265
-0.26
-0.24
-0.23
-0.26
-0.255
-0.28
-0.255
-0.24
-0.225
-0.235
-0.25
-0.23
-0.21
-0.19
-0.2
-0.2
-0.205
-0.19
-0.17
-0.16
-0.145
-0.165
-0.18
-0.21
-0.21
-0.2
-0.18
-0.165
-0.155
-0.17
-0.19
-0.195
-0.205
-0.205
-0.23
-0.245
-0.24
-0.2
-0.19
-0.215
-0.27
-0.27
-0.25
-0.23
-0.22
-0.225
-0.24
-0.245
-0.255
-0.245
-0.24
-0.23
-0.22
-0.245
-0.29
-0.305
-0.32
-0.31
-0.32
-0.335
-0.345
-0.345
-0.33
-0.325
-0.34
-0.365
-0.355
-0.335
-0.35
-0.345
-0.34
-0.335
-0.35
-0.34
-0.34
-0.335
-0.335
-0.36
-0.355
-0.37
-0.34
-0.285
-0.19
-0.06
0.14
0.37
0.63
0.835
0.95
0.93
0.735
0.425
0.025
-0.41
-0.795
-0.955
-0.945
-0.83
-0.72
-0.6
-0.515
-0.45
-0.385
-0.355
-0.35
-0.345
-0.35
-0.365
-0.365
-0.36
-0.36
-0.355
-0.385
-0.38
-0.365
-0.32
-0.315
-0.335
-0.355
-0.365
-0.37
-0.355
-0.325
-0.33
-0.335
-0.33
-0.33
-0.31
-0.3
-0.315
-0.32
-0.31
-0.275
-0.26
-0.255
-0.26
-0.255
-0.27
-0.255
-0.245
-0.225
-0.225
-0.215
-0.195
-0.16
-0.145
-0.15
